EMG_1,EMG_2,EMG_3,EMG_4,EMG_5,EMG_6,EMG_7,EMG_8,EMG_9,EMG_10,EMG_11,EMG_12,EMG_13,EMG_14,EMG_15,EMG_16,EMG_17,EMG_18,EMG_19,EMG_20,Label
0.4571428571428571,0.1428571428571428,0.19999999999999996,0.37142857142857144,0.05714285714285716,-1.0,1.0,-0.17142857142857137,1.0,0.3999999999999999,-0.06666666666666665,-0.4,0.5333333333333334,0.8,0.19999999999999996,-1.0,-1.0,0.1428571428571428,0.1071428571428572,1.0,1
-0.06666666666666665,-0.4,0.5333333333333334,0.8,0.19999999999999996,-1.0,-1.0,0.1428571428571428,0.1071428571428572,1.0,0.1071428571428572,-0.2142857142857143,-0.7857142857142857,-0.1428571428571429,0.21212121212121215,0.4545454545454546,1.0,-1.0,0.9393939393939394,-0.6363636363636364,1
0.1071428571428572,-0.2142857142857143,-0.7857142857142857,-0.1428571428571429,0.21212121212121215,0.4545454545454546,1.0,-1.0,0.9393939393939394,-0.6363636363636364,-0.8787878787878788,-0.5757575757575757,-0.3076923076923077,0.15384615384615374,0.23076923076923084,1.0,-1.0,-0.46153846153846156,0.15384615384615374,-0.07692307692307687,1
-0.8787878787878788,-0.5757575757575757,-0.3076923076923077,0.15384615384615374,0.23076923076923084,1.0,-1.0,-0.46153846153846156,0.15384615384615374,-0.07692307692307687,-0.5483870967741935,-1.0,-0.935483870967742,-0.8064516129032258,1.0,0.22580645161290325,-0.4838709677419355,-0.22580645161290325,0.1200000000000001,-0.43999999999999995,1
-0.5483870967741935,-1.0,-0.935483870967742,-0.8064516129032258,1.0,0.22580645161290325,-0.4838709677419355,-0.22580645161290325,0.1200000000000001,-0.43999999999999995,-1.0,0.3600000000000001,-0.12,1.0,-0.6799999999999999,0.040000000000000036,-0.08433734939759041,-0.22891566265060237,-0.06024096385542166,-0.5180722891566265,1
-1.0,0.3600000000000001,-0.12,1.0,-0.6799999999999999,0.040000000000000036,-0.08433734939759041,-0.22891566265060237,-0.06024096385542166,-0.5180722891566265,-0.7831325301204819,0.20481927710843384,1.0,-1.0,-0.13043478260869568,-0.4130434782608695,-0.7391304347826086,-0.3913043478260869,-0.5217391304347826,-1.0,1
-0.7831325301204819,0.20481927710843384,1.0,-1.0,-0.13043478260869568,-0.4130434782608695,-0.7391304347826086,-0.3913043478260869,-0.5217391304347826,-1.0,-0.021739130434782594,1.0,-0.25,-0.75,-0.75,-0.8928571428571429,0.03571428571428581,1.0,-0.25,-1.0,1
-0.021739130434782594,1.0,-0.25,-0.75,-0.75,-0.8928571428571429,0.03571428571428581,1.0,-0.25,-1.0,-0.5862068965517242,-0.7241379310344828,-0.4482758620689655,1.0,0.034482758620689724,-0.5862068965517242,-0.5862068965517242,-1.0,1.0,0.0,1
-0.5862068965517242,-0.7241379310344828,-0.4482758620689655,1.0,0.034482758620689724,-0.5862068965517242,-0.5862068965517242,-1.0,1.0,0.0,0.0,0.22222222222222232,0.6666666666666667,-1.0,-0.8888888888888888,-0.33333333333333337,-1.0,-0.33333333333333337,-0.6666666666666667,-0.9444444444444444,1
0.0,0.22222222222222232,0.6666666666666667,-1.0,-0.8888888888888888,-0.33333333333333337,-1.0,-0.33333333333333337,-0.6666666666666667,-0.9444444444444444,-0.9444444444444444,1.0,-0.05555555555555558,-1.0,0.8888888888888888,1.0,0.8055555555555556,0.8611111111111112,0.7777777777777777,-1.0,1
-0.9444444444444444,1.0,-0.05555555555555558,-1.0,0.8888888888888888,1.0,0.8055555555555556,0.8611111111111112,0.7777777777777777,-1.0,0.5555555555555556,0.8888888888888888,1.0,-1.0,-1.0,-1.0,0.0,0.3999999999999999,-0.4,0.3999999999999999,1
0.5555555555555556,0.8888888888888888,1.0,-1.0,-1.0,-1.0,0.0,0.3999999999999999,-0.4,0.3999999999999999,0.6000000000000001,0.6000000000000001,-0.33333333333333337,-0.4666666666666667,1.0,0.46666666666666656,-1.0,0.19999999999999996,-1.0,-0.375,1
0.6000000000000001,0.6000000000000001,-0.33333333333333337,-0.4666666666666667,1.0,0.46666666666666656,-1.0,0.19999999999999996,-1.0,-0.375,-0.125,-0.75,-0.625,0.125,-0.125,1.0,-0.5714285714285714,0.2857142857142858,-0.1428571428571429,0.0,1
-0.125,-0.75,-0.625,0.125,-0.125,1.0,-0.5714285714285714,0.2857142857142858,-0.1428571428571429,0.0,0.1428571428571428,1.0,0.8571428571428572,-1.0,-1.0,-0.6,-0.7333333333333334,-0.06666666666666665,0.19999999999999996,1.0,1
0.1428571428571428,1.0,0.8571428571428572,-1.0,-1.0,-0.6,-0.7333333333333334,-0.06666666666666665,0.19999999999999996,1.0,-0.4666666666666667,-0.8666666666666667,0.826086956521739,1.0,0.04347826086956519,-0.13043478260869568,-1.0,-0.30434782608695654,0.4782608695652173,1.0,1
-0.4666666666666667,-0.8666666666666667,0.826086956521739,1.0,0.04347826086956519,-0.13043478260869568,-1.0,-0.30434782608695654,0.4782608695652173,1.0,-0.8260869565217391,-0.04347826086956519,1.0,0.826086956521739,-0.6521739130434783,0.30434782608695654,-1.0,-1.0,0.13725490196078427,-0.4901960784313726,1
-0.8260869565217391,-0.04347826086956519,1.0,0.826086956521739,-0.6521739130434783,0.30434782608695654,-1.0,-1.0,0.13725490196078427,-0.4901960784313726,-0.6470588235294117,-0.607843137254902,1.0,-0.4117647058823529,-1.0,0.5294117647058822,-1.0,-0.2093023255813954,-0.11627906976744184,1.0,1
-0.6470588235294117,-0.607843137254902,1.0,-0.4117647058823529,-1.0,0.5294117647058822,-1.0,-0.2093023255813954,-0.11627906976744184,1.0,-0.39534883720930236,-0.16279069767441856,-0.16279069767441856,0.4883720930232558,1.0,0.5555555555555556,0.5555555555555556,-0.4444444444444444,-1.0,0.16666666666666674,1
-0.39534883720930236,-0.16279069767441856,-0.16279069767441856,0.4883720930232558,1.0,0.5555555555555556,0.5555555555555556,-0.4444444444444444,-1.0,0.16666666666666674,0.7222222222222223,0.5555555555555556,0.1499999999999999,-0.15000000000000002,0.5,-1.0,-0.8,1.0,-0.65,0.6000000000000001,1
0.7222222222222223,0.5555555555555556,0.1499999999999999,-0.15000000000000002,0.5,-1.0,-0.8,1.0,-0.65,0.6000000000000001,0.43999999999999995,0.43999999999999995,0.24,0.8,0.48,-0.36,1.0,-1.0,1.0,0.8076923076923077,1
0.43999999999999995,0.43999999999999995,0.24,0.8,0.48,-0.36,1.0,-1.0,1.0,0.8076923076923077,0.48076923076923084,0.23076923076923084,0.9807692307692308,0.28846153846153855,-1.0,0.6346153846153846,-0.6137931034482759,-0.1586206896551724,-0.19999999999999996,-0.43448275862068964,1
0.48076923076923084,0.23076923076923084,0.9807692307692308,0.28846153846153855,-1.0,0.6346153846153846,-0.6137931034482759,-0.1586206896551724,-0.19999999999999996,-0.43448275862068964,-1.0,0.034482758620689724,1.0,0.4758620689655173,1.0,0.8021978021978022,0.6923076923076923,0.5604395604395604,0.4285714285714286,0.9340659340659341,1
-1.0,0.034482758620689724,1.0,0.4758620689655173,1.0,0.8021978021978022,0.6923076923076923,0.5604395604395604,0.4285714285714286,0.9340659340659341,-1.0,0.9340659340659341,-0.3098591549295775,-0.05633802816901412,0.323943661971831,-0.07042253521126762,1.0,0.408450704225352,0.08450704225352124,-1.0,1
-1.0,0.9340659340659341,-0.3098591549295775,-0.05633802816901412,0.323943661971831,-0.07042253521126762,1.0,0.408450704225352,0.08450704225352124,-1.0,1.0,-0.22388059701492535,-0.16417910447761197,0.9402985074626866,0.34328358208955234,-1.0,-0.25373134328358204,-0.3731343283582089,-1.0,-0.008196721311475419,1
1.0,-0.22388059701492535,-0.16417910447761197,0.9402985074626866,0.34328358208955234,-1.0,-0.25373134328358204,-0.3731343283582089,-1.0,-0.008196721311475419,0.11475409836065564,0.3278688524590163,1.0,0.319672131147541,0.38524590163934436,0.5573770491803278,1.0,-0.030927835051546393,-0.12371134020618557,0.15463917525773185,1
0.11475409836065564,0.3278688524590163,1.0,0.319672131147541,0.38524590163934436,0.5573770491803278,1.0,-0.030927835051546393,-0.12371134020618557,0.15463917525773185,0.9896907216494846,0.020618556701030855,-1.0,-0.4639175257731959,-0.027027027027026973,0.10810810810810811,0.1351351351351351,0.6756756756756757,0.2432432432432432,-1.0,1
0.9896907216494846,0.020618556701030855,-1.0,-0.4639175257731959,-0.027027027027026973,0.10810810810810811,0.1351351351351351,0.6756756756756757,0.2432432432432432,-1.0,0.8648648648648649,1.0,-0.1578947368421053,0.6842105263157894,1.0,-1.0,-0.5789473684210527,0.1578947368421053,0.631578947368421,0.42105263157894735,1
0.8648648648648649,1.0,-0.1578947368421053,0.6842105263157894,1.0,-1.0,-0.5789473684210527,0.1578947368421053,0.631578947368421,0.42105263157894735,-0.9365079365079365,-0.3650793650793651,-0.2063492063492064,0.04761904761904767,1.0,-1.0,-0.2063492063492064,-0.5873015873015873,-0.5925925925925926,-0.4629629629629629,1
-0.9365079365079365,-0.3650793650793651,-0.2063492063492064,0.04761904761904767,1.0,-1.0,-0.2063492063492064,-0.5873015873015873,-0.5925925925925926,-0.4629629629629629,-0.2962962962962963,-0.05555555555555558,1.0,-0.20370370370370372,-1.0,-0.40740740740740744,0.6216216216216217,1.0,0.6756756756756757,0.945945945945946,1
-0.2962962962962963,-0.05555555555555558,1.0,-0.20370370370370372,-1.0,-0.40740740740740744,0.6216216216216217,1.0,0.6756756756756757,0.945945945945946,-0.8918918918918919,0.7837837837837838,-1.0,1.0,-0.29032258064516125,0.09677419354838701,0.22580645161290325,1.0,-0.09677419354838712,0.032258064516129004,1
-0.8918918918918919,0.7837837837837838,-1.0,1.0,-0.29032258064516125,0.09677419354838701,0.22580645161290325,1.0,-0.09677419354838712,0.032258064516129004,-1.0,-0.29032258064516125,0.40909090909090917,0.2272727272727273,0.2272727272727273,-1.0,-0.2727272727272727,-0.045454545454545414,1.0,0.5454545454545454,1
-1.0,-0.29032258064516125,0.40909090909090917,0.2272727272727273,0.2272727272727273,-1.0,-0.2727272727272727,-0.045454545454545414,1.0,0.5454545454545454,-0.3076923076923077,0.15384615384615374,-0.9230769230769231,-0.07692307692307687,-1.0,-0.15384615384615385,1.0,-0.3846153846153846,-0.4222222222222223,-0.4222222222222223,1
-0.3076923076923077,0.15384615384615374,-0.9230769230769231,-0.07692307692307687,-1.0,-0.15384615384615385,1.0,-0.3846153846153846,-0.4222222222222223,-0.4222222222222223,-0.24444444444444446,1.0,0.5555555555555556,-1.0,0.37777777777777777,-0.6444444444444444,0.5423728813559323,0.6440677966101696,0.6779661016949152,-1.0,1
-0.24444444444444446,1.0,0.5555555555555556,-1.0,0.37777777777777777,-0.6444444444444444,0.5423728813559323,0.6440677966101696,0.6779661016949152,-1.0,0.22033898305084754,0.8983050847457628,1.0,0.6610169491525424,-0.12941176470588234,-0.8588235294117648,-1.0,0.7176470588235293,1.0,-0.0117647058823529,1
0.22033898305084754,0.8983050847457628,1.0,0.6610169491525424,-0.12941176470588234,-0.8588235294117648,-1.0,0.7176470588235293,1.0,-0.0117647058823529,-0.45882352941176474,-0.6941176470588235,0.11538461538461542,0.4423076923076923,0.75,-0.3653846153846154,-1.0,0.21153846153846145,1.0,0.11538461538461542,1
-0.45882352941176474,-0.6941176470588235,0.11538461538461542,0.4423076923076923,0.75,-0.3653846153846154,-1.0,0.21153846153846145,1.0,0.11538461538461542,-0.15384615384615385,0.3076923076923077,-0.23076923076923073,0.8461538461538463,0.3076923076923077,1.0,-1.0,0.46153846153846145,0.975609756097561,0.9268292682926829,1
-0.15384615384615385,0.3076923076923077,-0.23076923076923073,0.8461538461538463,0.3076923076923077,1.0,-1.0,0.46153846153846145,0.975609756097561,0.9268292682926829,0.9512195121951219,-1.0,0.46341463414634143,0.6829268292682926,1.0,0.9268292682926829,-0.8613861386138614,-0.9603960396039604,-1.0,1.0,1
0.9512195121951219,-1.0,0.46341463414634143,0.6829268292682926,1.0,0.9268292682926829,-0.8613861386138614,-0.9603960396039604,-1.0,1.0,-0.9603960396039604,-0.6039603960396039,-0.7029702970297029,-0.801980198019802,-0.4347826086956522,-0.4347826086956522,-1.0,1.0,-0.13043478260869568,-0.6086956521739131,1
-0.9603960396039604,-0.6039603960396039,-0.7029702970297029,-0.801980198019802,-0.4347826086956522,-0.4347826086956522,-1.0,1.0,-0.13043478260869568,-0.6086956521739131,-0.6521739130434783,-0.4782608695652174,0.9285714285714286,1.0,0.9523809523809523,-1.0,0.0,0.8333333333333333,0.9285714285714286,0.9761904761904763,1
-0.6521739130434783,-0.4782608695652174,0.9285714285714286,1.0,0.9523809523809523,-1.0,0.0,0.8333333333333333,0.9285714285714286,0.9761904761904763,1.0,0.24137931034482762,-1.0,0.4482758620689655,0.5172413793103448,0.6551724137931034,0.6896551724137931,0.6551724137931034,-0.8305084745762712,0.0847457627118644,1
1.0,0.24137931034482762,-1.0,0.4482758620689655,0.5172413793103448,0.6551724137931034,0.6896551724137931,0.6551724137931034,-0.8305084745762712,0.0847457627118644,1.0,0.18644067796610164,-1.0,-0.7627118644067796,-0.3220338983050848,-0.4915254237288136,0.040000000000000036,-0.6799999999999999,-1.0,0.1200000000000001,1
1.0,0.18644067796610164,-1.0,-0.7627118644067796,-0.3220338983050848,-0.4915254237288136,0.040000000000000036,-0.6799999999999999,-1.0,0.1200000000000001,-0.040000000000000036,1.0,0.040000000000000036,-0.040000000000000036,-1.0,-0.7777777777777778,-0.6666666666666667,1.0,-0.2222222222222222,-0.2777777777777778,1
-0.040000000000000036,1.0,0.040000000000000036,-0.040000000000000036,-1.0,-0.7777777777777778,-0.6666666666666667,1.0,-0.2222222222222222,-0.2777777777777778,-0.5555555555555556,-0.5,0.9310344827586208,1.0,0.48275862068965525,-0.2068965517241379,-1.0,0.7931034482758621,0.8620689655172413,0.896551724137931,1
-0.5555555555555556,-0.5,0.9310344827586208,1.0,0.48275862068965525,-0.2068965517241379,-1.0,0.7931034482758621,0.8620689655172413,0.896551724137931,0.48299319727891166,0.6870748299319729,0.7142857142857142,0.8775510204081634,-1.0,0.9727891156462585,1.0,0.727891156462585,1.0,0.6865671641791045,1
0.48299319727891166,0.6870748299319729,0.7142857142857142,0.8775510204081634,-1.0,0.9727891156462585,1.0,0.727891156462585,1.0,0.6865671641791045,0.5373134328358209,-0.4626865671641791,0.9701492537313432,0.6119402985074627,-1.0,0.13432835820895517,-0.736842105263158,-0.6578947368421053,-1.0,-0.3157894736842105,1
0.5373134328358209,-0.4626865671641791,0.9701492537313432,0.6119402985074627,-1.0,0.13432835820895517,-0.736842105263158,-0.6578947368421053,-1.0,-0.3157894736842105,0.21052631578947367,-0.4736842105263158,1.0,0.7105263157894737,-0.4666666666666667,-0.06666666666666665,-0.1466666666666666,-1.0,1.0,0.09333333333333327,1
0.21052631578947367,-0.4736842105263158,1.0,0.7105263157894737,-0.4666666666666667,-0.06666666666666665,-0.1466666666666666,-1.0,1.0,0.09333333333333327,-0.76,-0.43999999999999995,0.41414141414141414,0.2727272727272727,0.29292929292929304,-0.5151515151515151,-1.0,-0.2727272727272727,1.0,0.2727272727272727,1
-0.76,-0.43999999999999995,0.41414141414141414,0.2727272727272727,0.29292929292929304,-0.5151515151515151,-1.0,-0.2727272727272727,1.0,0.2727272727272727,-0.7777777777777778,-0.7777777777777778,-0.38095238095238093,1.0,0.6031746031746033,-0.8412698412698413,-1.0,-0.3650793650793651,0.5151515151515151,0.8181818181818181,1
-0.7777777777777778,-0.7777777777777778,-0.38095238095238093,1.0,0.6031746031746033,-0.8412698412698413,-1.0,-0.3650793650793651,0.5151515151515151,0.8181818181818181,1.0,0.2272727272727273,-1.0,0.6666666666666667,0.1515151515151516,0.06060606060606055,1.0,-0.23076923076923073,-0.9076923076923077,-0.9076923076923077,1
1.0,0.2272727272727273,-1.0,0.6666666666666667,0.1515151515151516,0.06060606060606055,1.0,-0.23076923076923073,-0.9076923076923077,-0.9076923076923077,-0.3538461538461538,-0.9076923076923077,-1.0,-0.23076923076923073,0.08064516129032251,-0.09677419354838712,-0.11290322580645162,1.0,0.29032258064516125,-0.4516129032258065,1
-0.3538461538461538,-0.9076923076923077,-1.0,-0.23076923076923073,0.08064516129032251,-0.09677419354838712,-0.11290322580645162,1.0,0.29032258064516125,-0.4516129032258065,-1.0,0.20967741935483875,0.9252336448598131,0.9252336448598131,0.8130841121495327,-1.0,0.36448598130841114,1.0,1.0,0.8317757009345794,1
-1.0,0.20967741935483875,0.9252336448598131,0.9252336448598131,0.8130841121495327,-1.0,0.36448598130841114,1.0,1.0,0.8317757009345794,-1.0,-0.8955223880597015,-0.7313432835820896,0.5970149253731343,1.0,-0.7014925373134329,-0.6268656716417911,-0.7313432835820896,-1.0,0.19402985074626855,1
-1.0,-0.8955223880597015,-0.7313432835820896,0.5970149253731343,1.0,-0.7014925373134329,-0.6268656716417911,-0.7313432835820896,-1.0,0.19402985074626855,0.8507462686567164,1.0,-0.7611940298507462,-0.6417910447761195,-0.5223880597014925,-0.5223880597014925,0.17910447761194037,-0.31343283582089554,-0.9253731343283582,1.0,1
0.8507462686567164,1.0,-0.7611940298507462,-0.6417910447761195,-0.5223880597014925,-0.5223880597014925,0.17910447761194037,-0.31343283582089554,-0.9253731343283582,1.0,0.7462686567164178,-0.25373134328358204,-0.5373134328358209,-1.0,-0.020576131687242816,-0.004115226337448541,0.03703703703703698,-0.6707818930041152,-1.0,0.2592592592592593,1
0.7462686567164178,-0.25373134328358204,-0.5373134328358209,-1.0,-0.020576131687242816,-0.004115226337448541,0.03703703703703698,-0.6707818930041152,-1.0,0.2592592592592593,0.45679012345679015,1.0,-0.0980392156862745,-0.207843137254902,-0.48235294117647054,-1.0,1.0,-0.45882352941176474,-0.6392156862745098,-0.8509803921568627,1
0.45679012345679015,1.0,-0.0980392156862745,-0.207843137254902,-0.48235294117647054,-1.0,1.0,-0.45882352941176474,-0.6392156862745098,-0.8509803921568627,-1.0,-1.0,-0.14049586776859502,1.0,1.0,-0.8181818181818181,-0.6859504132231404,-0.5206611570247934,0.09708737864077666,0.18446601941747565,1
-1.0,-1.0,-0.14049586776859502,1.0,1.0,-0.8181818181818181,-0.6859504132231404,-0.5206611570247934,0.09708737864077666,0.18446601941747565,-0.08737864077669899,-1.0,1.0,0.17475728155339798,0.24271844660194164,0.27184466019417486,-0.4566473988439307,-0.630057803468208,-0.5838150289017341,-0.5606936416184971,1
-0.08737864077669899,-1.0,1.0,0.17475728155339798,0.24271844660194164,0.27184466019417486,-0.4566473988439307,-0.630057803468208,-0.5838150289017341,-0.5606936416184971,1.0,-0.653179190751445,-0.21387283236994215,-1.0,-0.4088050314465409,-0.610062893081761,-0.33333333333333337,1.0,-1.0,-0.6226415094339622,1
1.0,-0.653179190751445,-0.21387283236994215,-1.0,-0.4088050314465409,-0.610062893081761,-0.33333333333333337,1.0,-1.0,-0.6226415094339622,-0.8113207547169812,0.3459119496855345,-0.44545454545454544,0.09090909090909083,0.44545454545454555,0.9636363636363636,1.0,0.10909090909090913,-1.0,-0.7454545454545455,1
-0.8113207547169812,0.3459119496855345,-0.44545454545454544,0.09090909090909083,0.44545454545454555,0.9636363636363636,1.0,0.10909090909090913,-1.0,-0.7454545454545455,0.5774647887323943,0.4178403755868545,0.09859154929577474,-0.7370892018779343,-1.0,0.49295774647887325,0.6056338028169015,1.0,-0.13385826771653542,0.007874015748031482,1
0.5774647887323943,0.4178403755868545,0.09859154929577474,-0.7370892018779343,-1.0,0.49295774647887325,0.6056338028169015,1.0,-0.13385826771653542,0.007874015748031482,0.25196850393700787,1.0,-0.7952755905511811,-0.1417322834645669,-1.0,-0.1889763779527559,-1.0,-0.3555555555555555,-0.5555555555555556,1.0,1
0.25196850393700787,1.0,-0.7952755905511811,-0.1417322834645669,-1.0,-0.1889763779527559,-1.0,-0.3555555555555555,-0.5555555555555556,1.0,-0.8444444444444444,0.2666666666666666,0.33333333333333326,0.8444444444444446,0.7432432432432432,0.2702702702702702,-0.027027027027026973,-0.9054054054054054,-1.0,0.09459459459459452,1
-0.8444444444444444,0.2666666666666666,0.33333333333333326,0.8444444444444446,0.7432432432432432,0.2702702702702702,-0.027027027027026973,-0.9054054054054054,-1.0,0.09459459459459452,0.16216216216216206,1.0,-1.0,-0.10144927536231885,-0.1497584541062802,1.0,-0.5748792270531401,-0.24637681159420288,0.07246376811594213,-0.21739130434782605,1
0.16216216216216206,1.0,-1.0,-0.10144927536231885,-0.1497584541062802,1.0,-0.5748792270531401,-0.24637681159420288,0.07246376811594213,-0.21739130434782605,1.0,0.27,0.45999999999999996,0.20999999999999996,-1.0,0.3600000000000001,0.3799999999999999,0.54,-1.0,0.639344262295082,1
1.0,0.27,0.45999999999999996,0.20999999999999996,-1.0,0.3600000000000001,0.3799999999999999,0.54,-1.0,0.639344262295082,0.29508196721311486,-1.0,0.278688524590164,1.0,0.21311475409836067,-1.0,0.2773109243697478,0.39495798319327724,0.2941176470588236,0.680672268907563,1
0.29508196721311486,-1.0,0.278688524590164,1.0,0.21311475409836067,-1.0,0.2773109243697478,0.39495798319327724,0.2941176470588236,0.680672268907563,0.73109243697479,-0.19327731092436973,-1.0,1.0,1.0,0.050980392156862786,-0.019607843137254943,-0.9529411764705882,-1.0,0.0039215686274509665,1
0.73109243697479,-0.19327731092436973,-1.0,1.0,1.0,0.050980392156862786,-0.019607843137254943,-0.9529411764705882,-1.0,0.0039215686274509665,0.10588235294117654,0.9450980392156862,-0.22077922077922074,0.07359307359307365,0.24675324675324672,1.0,0.4458874458874458,0.21212121212121215,0.2987012987012987,-1.0,1
0.10588235294117654,0.9450980392156862,-0.22077922077922074,0.07359307359307365,0.24675324675324672,1.0,0.4458874458874458,0.21212121212121215,0.2987012987012987,-1.0,-0.5875,-0.7375,-0.725,1.0,1.0,-0.8625,-0.575,-1.0,0.676595744680851,-0.16595744680851066,1
-0.5875,-0.7375,-0.725,1.0,1.0,-0.8625,-0.575,-1.0,0.676595744680851,-0.16595744680851066,-0.19148936170212771,-1.0,1.0,-0.3361702127659575,-0.5404255319148936,0.8553191489361702,-1.0,-0.13636363636363635,-0.18181818181818177,-0.2272727272727273,1
-0.19148936170212771,-1.0,1.0,-0.3361702127659575,-0.5404255319148936,0.8553191489361702,-1.0,-0.13636363636363635,-0.18181818181818177,-0.2272727272727273,1.0,0.3181818181818181,0.2727272727272727,-0.40909090909090906,0.5909090909090908,0.40909090909090917,0.3181818181818181,1.0,-1.0,0.0,1
1.0,0.3181818181818181,0.2727272727272727,-0.40909090909090906,0.5909090909090908,0.40909090909090917,0.3181818181818181,1.0,-1.0,0.0,-0.8181818181818181,-0.31818181818181823,-1.0,-0.33333333333333337,-0.7,1.0,0.5333333333333334,-1.0,-0.4666666666666667,-0.5,1
-0.8181818181818181,-0.31818181818181823,-1.0,-0.33333333333333337,-0.7,1.0,0.5333333333333334,-1.0,-0.4666666666666667,-0.5,0.11538461538461542,0.3076923076923077,0.28205128205128216,-1.0,-0.47435897435897434,1.0,0.5512820512820513,0.5897435897435896,1.0,0.811023622047244,1
0.11538461538461542,0.3076923076923077,0.28205128205128216,-1.0,-0.47435897435897434,1.0,0.5512820512820513,0.5897435897435896,1.0,0.811023622047244,0.40157480314960625,-1.0,-1.0,0.5905511811023623,0.811023622047244,0.905511811023622,-0.8279569892473118,-0.032258064516129004,0.09677419354838701,1.0,1
0.40157480314960625,-1.0,-1.0,0.5905511811023623,0.811023622047244,0.905511811023622,-0.8279569892473118,-0.032258064516129004,0.09677419354838701,1.0,-1.0,-0.07526881720430112,-0.22580645161290325,-0.20430107526881724,0.3793103448275863,0.4137931034482758,0.3448275862068966,-1.0,1.0,0.603448275862069,1
-1.0,-0.07526881720430112,-0.22580645161290325,-0.20430107526881724,0.3793103448275863,0.4137931034482758,0.3448275862068966,-1.0,1.0,0.603448275862069,0.5,0.7068965517241379,0.23222748815165883,0.2417061611374407,0.3270142180094786,1.0,-1.0,0.3838862559241707,0.2037914691943128,0.1943127962085307,1
0.5,0.7068965517241379,0.23222748815165883,0.2417061611374407,0.3270142180094786,1.0,-1.0,0.3838862559241707,0.2037914691943128,0.1943127962085307,-0.8852459016393442,-0.8852459016393442,-0.8688524590163934,-0.11475409836065575,1.0,-0.819672131147541,-1.0,-0.9508196721311475,0.8933333333333333,0.7333333333333334,1
-0.8852459016393442,-0.8852459016393442,-0.8688524590163934,-0.11475409836065575,1.0,-0.819672131147541,-1.0,-0.9508196721311475,0.8933333333333333,0.7333333333333334,0.9733333333333334,1.0,-1.0,-0.6533333333333333,0.5733333333333333,0.6266666666666667,-0.3555555555555555,-0.022222222222222254,-0.06666666666666665,-0.5555555555555556,1
0.9733333333333334,1.0,-1.0,-0.6533333333333333,0.5733333333333333,0.6266666666666667,-0.3555555555555555,-0.022222222222222254,-0.06666666666666665,-0.5555555555555556,-1.0,1.0,0.11111111111111116,0.0888888888888888,0.8999999999999999,1.0,0.96,0.020000000000000018,-1.0,0.21999999999999997,1
-1.0,1.0,0.11111111111111116,0.0888888888888888,0.8999999999999999,1.0,0.96,0.020000000000000018,-1.0,0.21999999999999997,0.8999999999999999,0.96,-0.2727272727272727,0.5272727272727273,1.0,0.9636363636363636,-1.0,-0.1636363636363637,-0.018181818181818188,-0.12727272727272732,1
0.8999999999999999,0.96,-0.2727272727272727,0.5272727272727273,1.0,0.9636363636363636,-1.0,-0.1636363636363637,-0.018181818181818188,-0.12727272727272732,0.7,-0.8,-1.0,1.0,-0.6,-1.0,-0.6,-0.19999999999999996,0.4608695652173913,0.3565217391304347,1
0.7,-0.8,-1.0,1.0,-0.6,-1.0,-0.6,-0.19999999999999996,0.4608695652173913,0.3565217391304347,0.3565217391304347,1.0,-1.0,0.28695652173913033,0.4086956521739131,0.26956521739130435,0.8604651162790697,0.7906976744186047,0.34883720930232553,-1.0,1
0.3565217391304347,1.0,-1.0,0.28695652173913033,0.4086956521739131,0.26956521739130435,0.8604651162790697,0.7906976744186047,0.34883720930232553,-1.0,0.4883720930232558,1.0,0.9069767441860466,0.930232558139535,-0.4285714285714286,1.0,0.7142857142857142,0.4285714285714286,0.7142857142857142,0.7142857142857142,1
0.4883720930232558,1.0,0.9069767441860466,0.930232558139535,-0.4285714285714286,1.0,0.7142857142857142,0.4285714285714286,0.7142857142857142,0.7142857142857142,-1.0,-0.1428571428571429,-0.8333333333333334,-0.8484848484848485,-0.43939393939393945,1.0,0.5303030303030303,-1.0,-0.803030303030303,-0.8787878787878788,1
-1.0,-0.1428571428571429,-0.8333333333333334,-0.8484848484848485,-0.43939393939393945,1.0,0.5303030303030303,-1.0,-0.803030303030303,-0.8787878787878788,0.7826086956521738,0.8043478260869565,0.5434782608695652,-1.0,-0.6086956521739131,0.10869565217391308,0.8695652173913044,1.0,-0.74,-1.0,1
0.7826086956521738,0.8043478260869565,0.5434782608695652,-1.0,-0.6086956521739131,0.10869565217391308,0.8695652173913044,1.0,-0.74,-1.0,-0.76,1.0,-0.9,0.21999999999999997,-0.42000000000000004,-1.0,0.3411764705882352,0.6000000000000001,0.9764705882352942,1.0,1
-0.76,1.0,-0.9,0.21999999999999997,-0.42000000000000004,-1.0,0.3411764705882352,0.6000000000000001,0.9764705882352942,1.0,-1.0,-0.9764705882352941,-0.19999999999999996,0.45882352941176463,-0.8933333333333333,-0.2533333333333333,1.0,-0.8133333333333334,-1.0,-0.5466666666666666,1
-1.0,-0.9764705882352941,-0.19999999999999996,0.45882352941176463,-0.8933333333333333,-0.2533333333333333,1.0,-0.8133333333333334,-1.0,-0.5466666666666666,-0.8666666666666667,-0.9466666666666667,-0.020408163265306145,0.1428571428571428,-0.4285714285714286,1.0,-1.0,1.0,0.22448979591836737,-0.020408163265306145,1
-0.8666666666666667,-0.9466666666666667,-0.020408163265306145,0.1428571428571428,-0.4285714285714286,1.0,-1.0,1.0,0.22448979591836737,-0.020408163265306145,-1.0,-0.7948717948717949,-0.7435897435897436,-0.28205128205128205,-0.07692307692307687,1.0,-1.0,-0.5384615384615384,0.33333333333333326,0.03333333333333344,1
-1.0,-0.7948717948717949,-0.7435897435897436,-0.28205128205128205,-0.07692307692307687,1.0,-1.0,-0.5384615384615384,0.33333333333333326,0.03333333333333344,-0.5666666666666667,-0.21666666666666667,-1.0,1.0,0.46666666666666656,0.08333333333333326,0.5053763440860215,0.4623655913978495,-0.13978494623655913,-1.0,1
-0.5666666666666667,-0.21666666666666667,-1.0,1.0,0.46666666666666656,0.08333333333333326,0.5053763440860215,0.4623655913978495,-0.13978494623655913,-1.0,-0.010752688172043001,0.978494623655914,1.0,0.4838709677419355,-0.25373134328358204,0.22388059701492535,1.0,-1.0,-0.4029850746268657,-0.6119402985074627,1
-0.010752688172043001,0.978494623655914,1.0,0.4838709677419355,-0.25373134328358204,0.22388059701492535,1.0,-1.0,-0.4029850746268657,-0.6119402985074627,-0.9104477611940298,0.5223880597014925,0.9672131147540983,0.721311475409836,0.639344262295082,0.6065573770491803,0.6557377049180328,-1.0,0.5901639344262295,1.0,1
-0.9104477611940298,0.5223880597014925,0.9672131147540983,0.721311475409836,0.639344262295082,0.6065573770491803,0.6557377049180328,-1.0,0.5901639344262295,1.0,-0.6818181818181819,-0.8409090909090909,-1.0,-0.34090909090909094,-0.5454545454545454,1.0,-0.38636363636363635,-1.0,-0.5111111111111111,-0.49629629629629635,1
-0.6818181818181819,-0.8409090909090909,-1.0,-0.34090909090909094,-0.5454545454545454,1.0,-0.38636363636363635,-1.0,-0.5111111111111111,-0.49629629629629635,-0.33333333333333337,-0.18518518518518523,0.022222222222222143,1.0,0.125925925925926,-1.0,-0.4933333333333333,-0.31999999999999995,-0.10666666666666669,-0.5733333333333333,1
-0.33333333333333337,-0.18518518518518523,0.022222222222222143,1.0,0.125925925925926,-1.0,-0.4933333333333333,-0.31999999999999995,-0.10666666666666669,-0.5733333333333333,-0.36,0.21333333333333337,-1.0,1.0,0.83206106870229,0.7557251908396947,0.83206106870229,1.0,0.20610687022900764,-1.0,1
-0.36,0.21333333333333337,-1.0,1.0,0.83206106870229,0.7557251908396947,0.83206106870229,1.0,0.20610687022900764,-1.0,0.41984732824427473,0.2977099236641221,-0.3966480446927374,0.027932960893854775,-0.027932960893854775,-0.1061452513966481,0.5642458100558658,1.0,0.2960893854748603,-1.0,1
0.41984732824427473,0.2977099236641221,-0.3966480446927374,0.027932960893854775,-0.027932960893854775,-0.1061452513966481,0.5642458100558658,1.0,0.2960893854748603,-1.0,-0.20547945205479456,-0.6438356164383562,-1.0,-0.4246575342465754,-0.4246575342465754,1.0,0.013698630136986356,-0.09589041095890416,-0.030303030303030276,0.13636363636363646,1
-0.20547945205479456,-0.6438356164383562,-1.0,-0.4246575342465754,-0.4246575342465754,1.0,0.013698630136986356,-0.09589041095890416,-0.030303030303030276,0.13636363636363646,0.36363636363636354,1.0,-1.0,-0.4545454545454546,-0.015151515151515138,0.36363636363636354,0.5042735042735043,0.5897435897435896,0.4358974358974359,-1.0,1
0.36363636363636354,1.0,-1.0,-0.4545454545454546,-0.015151515151515138,0.36363636363636354,0.5042735042735043,0.5897435897435896,0.4358974358974359,-1.0,1.0,-0.008547008547008517,-0.5213675213675213,0.2649572649572649,-0.16201117318435754,-0.06145251396648044,0.005586592178770999,0.11731843575418988,-0.553072625698324,0.5195530726256983,1
1.0,-0.008547008547008517,-0.5213675213675213,0.2649572649572649,-0.16201117318435754,-0.06145251396648044,0.005586592178770999,0.11731843575418988,-0.553072625698324,0.5195530726256983,1.0,-1.0,0.30201342281879184,-0.03355704697986572,-0.14093959731543626,0.11409395973154357,0.4093959731543624,0.30201342281879184,-1.0,1.0,1
1.0,-1.0,0.30201342281879184,-0.03355704697986572,-0.14093959731543626,0.11409395973154357,0.4093959731543624,0.30201342281879184,-1.0,1.0,0.1020408163265305,0.12925170068027203,0.22448979591836737,0.18367346938775508,1.0,-1.0,0.2925170068027212,0.020408163265306145,-0.31081081081081086,-0.44594594594594594,1
0.1020408163265305,0.12925170068027203,0.22448979591836737,0.18367346938775508,1.0,-1.0,0.2925170068027212,0.020408163265306145,-0.31081081081081086,-0.44594594594594594,-0.33783783783783783,-0.3918918918918919,-0.7297297297297297,1.0,-0.28378378378378377,-1.0,1.0,0.46031746031746024,0.11111111111111116,-0.6190476190476191,1
-0.33783783783783783,-0.3918918918918919,-0.7297297297297297,1.0,-0.28378378378378377,-1.0,1.0,0.46031746031746024,0.11111111111111116,-0.6190476190476191,0.20634920634920628,-1.0,-0.07936507936507942,0.4920634920634921,-1.0,-0.3742331288343558,-0.22699386503067487,-0.1165644171779141,-0.05521472392638038,-0.3619631901840491,1
0.20634920634920628,-1.0,-0.07936507936507942,0.4920634920634921,-1.0,-0.3742331288343558,-0.22699386503067487,-0.1165644171779141,-0.05521472392638038,-0.3619631901840491,1.0,0.6441717791411044,1.0,0.661764705882353,0.7352941176470589,0.5735294117647058,0.9705882352941178,0.7205882352941178,-1.0,0.7205882352941178,1
1.0,0.6441717791411044,1.0,0.661764705882353,0.7352941176470589,0.5735294117647058,0.9705882352941178,0.7205882352941178,-1.0,0.7205882352941178,-0.020000000000000018,0.44999999999999996,0.3899999999999999,1.0,0.96,0.27,-0.010000000000000009,-1.0,0.3019607843137255,-0.1686274509803921,1
-0.020000000000000018,0.44999999999999996,0.3899999999999999,1.0,0.96,0.27,-0.010000000000000009,-1.0,0.3019607843137255,-0.1686274509803921,-0.37254901960784315,-0.7803921568627451,-0.388235294117647,0.5294117647058822,-1.0,1.0,0.031847133757961776,0.6560509554140128,0.7070063694267517,0.6305732484076434,1
-0.37254901960784315,-0.7803921568627451,-0.388235294117647,0.5294117647058822,-1.0,1.0,0.031847133757961776,0.6560509554140128,0.7070063694267517,0.6305732484076434,0.2993630573248407,-1.0,1.0,0.7324840764331211,0.2564102564102564,0.0641025641025641,0.08974358974358965,0.7435897435897436,0.7179487179487178,0.6923076923076923,1
0.2993630573248407,-1.0,1.0,0.7324840764331211,0.2564102564102564,0.0641025641025641,0.08974358974358965,0.7435897435897436,0.7179487179487178,0.6923076923076923,1.0,-1.0,-0.04109589041095896,0.17808219178082196,0.31506849315068486,-0.0547945205479452,-0.26027397260273977,1.0,-1.0,0.41095890410958913,1
1.0,-1.0,-0.04109589041095896,0.17808219178082196,0.31506849315068486,-0.0547945205479452,-0.26027397260273977,1.0,-1.0,0.41095890410958913,-0.9464285714285714,-0.9642857142857143,-1.0,0.75,-0.2142857142857143,0.4642857142857142,1.0,-0.3928571428571429,1.0,0.7345132743362832,1
-0.9464285714285714,-0.9642857142857143,-1.0,0.75,-0.2142857142857143,0.4642857142857142,1.0,-0.3928571428571429,1.0,0.7345132743362832,0.5221238938053097,-1.0,0.2920353982300885,-0.7699115044247787,0.06194690265486735,-0.3097345132743363,0.8799999999999999,0.7466666666666666,0.7066666666666668,0.6000000000000001,1
0.5221238938053097,-1.0,0.2920353982300885,-0.7699115044247787,0.06194690265486735,-0.3097345132743363,0.8799999999999999,0.7466666666666666,0.7066666666666668,0.6000000000000001,0.8266666666666667,-0.42666666666666664,-1.0,1.0,-0.09359605911330049,-0.3004926108374384,-0.35960591133004927,-1.0,-0.7832512315270936,1.0,1
0.8266666666666667,-0.42666666666666664,-1.0,1.0,-0.09359605911330049,-0.3004926108374384,-0.35960591133004927,-1.0,-0.7832512315270936,1.0,0.8522167487684729,-1.0,-0.058252427184465994,0.06796116504854366,0.13592233009708732,0.5436893203883495,1.0,-0.9805825242718447,-1.0,0.5048543689320388,1
0.8522167487684729,-1.0,-0.058252427184465994,0.06796116504854366,0.13592233009708732,0.5436893203883495,1.0,-0.9805825242718447,-1.0,0.5048543689320388,-0.04895104895104896,-0.04895104895104896,-0.30069930069930073,-0.46853146853146854,-1.0,1.0,0.06293706293706292,0.034965034965035,0.1333333333333333,0.3666666666666667,1
-0.04895104895104896,-0.04895104895104896,-0.30069930069930073,-0.46853146853146854,-1.0,1.0,0.06293706293706292,0.034965034965035,0.1333333333333333,0.3666666666666667,0.2666666666666666,-0.8666666666666667,1.0,-1.0,-0.16666666666666663,0.0,0.6842105263157894,-0.6491228070175439,-0.4385964912280702,0.5789473684210527,1
0.2666666666666666,-0.8666666666666667,1.0,-1.0,-0.16666666666666663,0.0,0.6842105263157894,-0.6491228070175439,-0.4385964912280702,0.5789473684210527,-1.0,1.0,0.894736842105263,0.08771929824561409,-0.03448275862068961,-0.24137931034482762,-0.5862068965517242,-1.0,-0.5517241379310345,1.0,1
-1.0,1.0,0.894736842105263,0.08771929824561409,-0.03448275862068961,-0.24137931034482762,-0.5862068965517242,-1.0,-0.5517241379310345,1.0,-0.4655172413793104,-0.48275862068965514,-0.3835616438356164,0.42465753424657526,0.6712328767123288,0.6575342465753424,0.3835616438356164,-1.0,0.0547945205479452,1.0,1
-0.4655172413793104,-0.48275862068965514,-0.3835616438356164,0.42465753424657526,0.6712328767123288,0.6575342465753424,0.3835616438356164,-1.0,0.0547945205479452,1.0,0.6428571428571428,-0.09523809523809523,-0.30952380952380953,-1.0,0.40476190476190466,0.5952380952380953,1.0,-0.6190476190476191,0.12925170068027203,0.2517006802721089,1
0.6428571428571428,-0.09523809523809523,-0.30952380952380953,-1.0,0.40476190476190466,0.5952380952380953,1.0,-0.6190476190476191,0.12925170068027203,0.2517006802721089,0.510204081632653,1.0,0.2789115646258504,0.6870748299319729,-1.0,-0.8367346938775511,-0.03658536585365857,-0.23170731707317072,-0.5975609756097561,-1.0,1
0.510204081632653,1.0,0.2789115646258504,0.6870748299319729,-1.0,-0.8367346938775511,-0.03658536585365857,-0.23170731707317072,-0.5975609756097561,-1.0,-0.6341463414634146,0.29268292682926833,0.4878048780487805,1.0,0.5774647887323943,0.15492957746478875,0.45070422535211274,0.43661971830985924,-0.21126760563380287,-1.0,1
-0.6341463414634146,0.29268292682926833,0.4878048780487805,1.0,0.5774647887323943,0.15492957746478875,0.45070422535211274,0.43661971830985924,-0.21126760563380287,-1.0,-0.15492957746478875,1.0,0.16470588235294126,0.10588235294117654,0.12941176470588234,0.0235294117647058,1.0,1.0,0.09411764705882364,-1.0,1
-0.15492957746478875,1.0,0.16470588235294126,0.10588235294117654,0.12941176470588234,0.0235294117647058,1.0,1.0,0.09411764705882364,-1.0,-0.35185185185185186,0.0,0.03703703703703698,0.8703703703703705,1.0,0.5925925925925926,-1.0,0.2407407407407407,1.0,0.611764705882353,1
-0.35185185185185186,0.0,0.03703703703703698,0.8703703703703705,1.0,0.5925925925925926,-1.0,0.2407407407407407,1.0,0.611764705882353,0.5529411764705883,0.5176470588235293,-1.0,0.16470588235294126,0.3999999999999999,0.3411764705882352,1.0,0.5371900826446281,0.4049586776859504,0.1074380165289257,1
0.5529411764705883,0.5176470588235293,-1.0,0.16470588235294126,0.3999999999999999,0.3411764705882352,1.0,0.5371900826446281,0.4049586776859504,0.1074380165289257,-1.0,0.6528925619834711,0.884297520661157,0.7024793388429753,-0.7066666666666667,-1.0,-0.76,-0.06666666666666665,1.0,0.28,1
-1.0,0.6528925619834711,0.884297520661157,0.7024793388429753,-0.7066666666666667,-1.0,-0.76,-0.06666666666666665,1.0,0.28,-0.84,-0.6266666666666667,0.07602339181286544,-0.6374269005847953,-0.6140350877192983,-0.3450292397660819,-0.06432748538011701,-1.0,1.0,-0.7660818713450293,1
-0.84,-0.6266666666666667,0.07602339181286544,-0.6374269005847953,-0.6140350877192983,-0.3450292397660819,-0.06432748538011701,-1.0,1.0,-0.7660818713450293,0.9337016574585635,0.4254143646408839,0.2928176795580111,-0.1270718232044199,-1.0,0.5359116022099448,0.5027624309392265,1.0,0.16546762589928066,0.4820143884892085,1
0.9337016574585635,0.4254143646408839,0.2928176795580111,-0.1270718232044199,-1.0,0.5359116022099448,0.5027624309392265,1.0,0.16546762589928066,0.4820143884892085,0.5539568345323742,0.3381294964028776,0.539568345323741,-1.0,1.0,0.28057553956834536,0.5223880597014925,-0.4328358208955224,-1.0,-0.5522388059701493,1
0.5539568345323742,0.3381294964028776,0.539568345323741,-1.0,1.0,0.28057553956834536,0.5223880597014925,-0.4328358208955224,-1.0,-0.5522388059701493,1.0,-1.0,-0.22388059701492535,0.9402985074626866,0.24390243902439024,0.7195121951219512,1.0,0.25609756097560976,0.3170731707317074,-1.0,1
1.0,-1.0,-0.22388059701492535,0.9402985074626866,0.24390243902439024,0.7195121951219512,1.0,0.25609756097560976,0.3170731707317074,-1.0,-0.41463414634146345,-0.6341463414634146,0.012658227848101333,-0.3924050632911392,0.1898734177215189,0.518987341772152,1.0,-0.49367088607594933,0.139240506329114,-1.0,1
-0.41463414634146345,-0.6341463414634146,0.012658227848101333,-0.3924050632911392,0.1898734177215189,0.518987341772152,1.0,-0.49367088607594933,0.139240506329114,-1.0,-0.8208955223880597,-0.7611940298507462,-0.791044776119403,-0.417910447761194,-1.0,1.0,0.7611940298507462,-0.14925373134328357,1.0,0.6944444444444444,1
-0.8208955223880597,-0.7611940298507462,-0.791044776119403,-0.417910447761194,-1.0,1.0,0.7611940298507462,-0.14925373134328357,1.0,0.6944444444444444,0.6527777777777777,0.7222222222222223,0.9583333333333333,-0.5138888888888888,-1.0,0.9166666666666667,0.21568627450980382,-0.4509803921568627,-0.6470588235294117,0.607843137254902,1
0.6527777777777777,0.7222222222222223,0.9583333333333333,-0.5138888888888888,-1.0,0.9166666666666667,0.21568627450980382,-0.4509803921568627,-0.6470588235294117,0.607843137254902,-0.21568627450980393,-1.0,1.0,0.33333333333333326,-0.5113636363636364,-0.6136363636363636,-0.9431818181818182,-0.38636363636363635,-0.17045454545454541,-1.0,1
-0.21568627450980393,-1.0,1.0,0.33333333333333326,-0.5113636363636364,-0.6136363636363636,-0.9431818181818182,-0.38636363636363635,-0.17045454545454541,-1.0,1.0,0.011363636363636465,-0.56,-0.3466666666666667,1.0,0.22666666666666657,-1.0,-0.6666666666666667,-0.3466666666666667,-0.7866666666666666,1
1.0,0.011363636363636465,-0.56,-0.3466666666666667,1.0,0.22666666666666657,-1.0,-0.6666666666666667,-0.3466666666666667,-0.7866666666666666,-1.0,0.13725490196078427,0.5555555555555556,0.24183006535947715,0.15032679738562083,1.0,-0.28104575163398693,-0.5947712418300654,0.7081081081081082,0.2432432432432432,1
-1.0,0.13725490196078427,0.5555555555555556,0.24183006535947715,0.15032679738562083,1.0,-0.28104575163398693,-0.5947712418300654,0.7081081081081082,0.2432432432432432,0.05945945945945952,0.6216216216216217,-0.048648648648648596,-1.0,1.0,0.827027027027027,-0.9696969696969697,-1.0,-0.9242424242424242,-0.6818181818181819,1
0.05945945945945952,0.6216216216216217,-0.048648648648648596,-1.0,1.0,0.827027027027027,-0.9696969696969697,-1.0,-0.9242424242424242,-0.6818181818181819,0.06060606060606055,1.0,0.33333333333333326,-0.696969696969697,0.15909090909090917,0.6590909090909092,0.5681818181818181,0.75,-0.6590909090909092,1.0,1
0.06060606060606055,1.0,0.33333333333333326,-0.696969696969697,0.15909090909090917,0.6590909090909092,0.5681818181818181,0.75,-0.6590909090909092,1.0,-1.0,-0.40909090909090906,1.0,0.6814159292035398,0.48672566371681425,0.752212389380531,0.6814159292035398,0.8053097345132743,0.34513274336283195,-1.0,1
-1.0,-0.40909090909090906,1.0,0.6814159292035398,0.48672566371681425,0.752212389380531,0.6814159292035398,0.8053097345132743,0.34513274336283195,-1.0,-0.3513513513513513,-0.9099099099099099,0.027027027027026973,-0.7837837837837838,-1.0,-0.963963963963964,0.49549549549549554,1.0,0.2108843537414966,0.6462585034013606,1
-0.3513513513513513,-0.9099099099099099,0.027027027027026973,-0.7837837837837838,-1.0,-0.963963963963964,0.49549549549549554,1.0,0.2108843537414966,0.6462585034013606,0.3605442176870748,0.6462585034013606,-0.26530612244897955,1.0,0.3197278911564625,-1.0,-0.2592592592592593,-0.4444444444444444,-1.0,0.5555555555555556,1
0.3605442176870748,0.6462585034013606,-0.26530612244897955,1.0,0.3197278911564625,-1.0,-0.2592592592592593,-0.4444444444444444,-1.0,0.5555555555555556,0.33333333333333326,1.0,-0.4814814814814815,-0.8888888888888888,1.0,0.6379310344827587,0.3448275862068966,-0.03448275862068961,-0.5172413793103448,0.0,1
0.33333333333333326,1.0,-0.4814814814814815,-0.8888888888888888,1.0,0.6379310344827587,0.3448275862068966,-0.03448275862068961,-0.5172413793103448,0.0,-1.0,-0.3620689655172413,0.14027149321266963,-0.21266968325791857,-0.1945701357466063,-1.0,-0.2036199095022625,1.0,0.9819004524886878,-0.1131221719457014,1
-1.0,-0.3620689655172413,0.14027149321266963,-0.21266968325791857,-0.1945701357466063,-1.0,-0.2036199095022625,1.0,0.9819004524886878,-0.1131221719457014,0.022222222222222143,-0.1703703703703704,-0.40740740740740744,1.0,-0.45185185185185184,-0.33333333333333337,-1.0,0.7333333333333334,0.0596026490066226,0.3377483443708609,1
0.022222222222222143,-0.1703703703703704,-0.40740740740740744,1.0,-0.45185185185185184,-0.33333333333333337,-1.0,0.7333333333333334,0.0596026490066226,0.3377483443708609,1.0,0.6026490066225165,-0.13907284768211925,-0.29801324503311255,0.20529801324503305,-1.0,-1.0,-0.6292134831460674,-0.8764044943820225,-0.4831460674157303,1
1.0,0.6026490066225165,-0.13907284768211925,-0.29801324503311255,0.20529801324503305,-1.0,-1.0,-0.6292134831460674,-0.8764044943820225,-0.4831460674157303,-0.7415730337078652,-0.3258426966292135,-0.9550561797752809,1.0,0.41025641025641035,-0.5128205128205128,0.0,1.0,-0.717948717948718,-1.0,1
-0.7415730337078652,-0.3258426966292135,-0.9550561797752809,1.0,0.41025641025641035,-0.5128205128205128,0.0,1.0,-0.717948717948718,-1.0,-0.9230769230769231,0.17948717948717952,-0.5714285714285714,0.2571428571428571,-0.3142857142857143,1.0,0.8571428571428572,0.11428571428571432,-0.3142857142857143,-1.0,1
-0.9230769230769231,0.17948717948717952,-0.5714285714285714,0.2571428571428571,-0.3142857142857143,1.0,0.8571428571428572,0.11428571428571432,-0.3142857142857143,-1.0,0.30000000000000004,-0.6,-0.6599999999999999,-0.42000000000000004,-0.86,1.0,0.17999999999999994,-1.0,0.318840579710145,0.2318840579710144,1
0.30000000000000004,-0.6,-0.6599999999999999,-0.42000000000000004,-0.86,1.0,0.17999999999999994,-1.0,0.318840579710145,0.2318840579710144,0.2753623188405796,0.5072463768115942,0.7826086956521738,-1.0,-0.26086956521739135,1.0,1.0,0.5968992248062015,0.20930232558139528,-1.0,1
0.2753623188405796,0.5072463768115942,0.7826086956521738,-1.0,-0.26086956521739135,1.0,1.0,0.5968992248062015,0.20930232558139528,-1.0,0.20930232558139528,-0.054263565891472854,0.875968992248062,0.13178294573643412,0.5428571428571429,0.00952380952380949,0.6761904761904762,0.9619047619047618,-0.3904761904761904,-1.0,1
0.20930232558139528,-0.054263565891472854,0.875968992248062,0.13178294573643412,0.5428571428571429,0.00952380952380949,0.6761904761904762,0.9619047619047618,-0.3904761904761904,-1.0,-0.7904761904761904,1.0,1.0,0.4426229508196722,-0.7049180327868853,-0.4098360655737705,-0.2786885245901639,0.901639344262295,-0.08196721311475408,-1.0,1
-0.7904761904761904,1.0,1.0,0.4426229508196722,-0.7049180327868853,-0.4098360655737705,-0.2786885245901639,0.901639344262295,-0.08196721311475408,-1.0,-0.8518518518518519,-0.9753086419753086,-1.0,-0.28395061728395066,0.9012345679012346,-0.11111111111111116,0.7037037037037037,1.0,-0.32499999999999996,0.3500000000000001,1
-0.8518518518518519,-0.9753086419753086,-1.0,-0.28395061728395066,0.9012345679012346,-0.11111111111111116,0.7037037037037037,1.0,-0.32499999999999996,0.3500000000000001,0.3500000000000001,1.0,-0.275,-0.07499999999999996,-0.17500000000000004,-1.0,-0.4787234042553191,-0.45744680851063835,-0.5957446808510638,-0.9787234042553191,1
0.3500000000000001,1.0,-0.275,-0.07499999999999996,-0.17500000000000004,-1.0,-0.4787234042553191,-0.45744680851063835,-0.5957446808510638,-0.9787234042553191,-0.5957446808510638,-1.0,1.0,-0.45744680851063835,0.8271604938271604,0.33333333333333326,0.45679012345679015,1.0,0.7037037037037037,-0.06172839506172845,1
-0.5957446808510638,-1.0,1.0,-0.45744680851063835,0.8271604938271604,0.33333333333333326,0.45679012345679015,1.0,0.7037037037037037,-0.06172839506172845,-1.0,0.11111111111111116,-1.0,-0.25396825396825395,-0.19047619047619047,1.0,0.12698412698412698,-0.5396825396825398,0.6507936507936507,-0.11111111111111116,1
-1.0,0.11111111111111116,-1.0,-0.25396825396825395,-0.19047619047619047,1.0,0.12698412698412698,-0.5396825396825398,0.6507936507936507,-0.11111111111111116,0.6338028169014085,0.6056338028169015,-1.0,-0.2676056338028169,-0.295774647887324,1.0,0.267605633802817,0.943661971830986,0.43529411764705883,0.37254901960784315,1
0.6338028169014085,0.6056338028169015,-1.0,-0.2676056338028169,-0.295774647887324,1.0,0.267605633802817,0.943661971830986,0.43529411764705883,0.37254901960784315,1.0,0.5607843137254902,0.5294117647058822,0.2549019607843137,-0.28627450980392155,-1.0,-0.45641025641025645,-0.6512820512820513,-0.45641025641025645,-1.0,1
1.0,0.5607843137254902,0.5294117647058822,0.2549019607843137,-0.28627450980392155,-1.0,-0.45641025641025645,-0.6512820512820513,-0.45641025641025645,-1.0,-0.5282051282051282,-0.1282051282051282,0.46666666666666656,1.0,-1.0,-0.4,-0.3090909090909091,0.25454545454545463,-0.9090909090909091,0.4363636363636363,1
-0.5282051282051282,-0.1282051282051282,0.46666666666666656,1.0,-1.0,-0.4,-0.3090909090909091,0.25454545454545463,-0.9090909090909091,0.4363636363636363,1.0,-0.21818181818181814,-0.23555555555555552,-0.22666666666666668,-0.41333333333333333,0.022222222222222143,0.9288888888888889,1.0,-0.6977777777777778,-1.0,1
1.0,-0.21818181818181814,-0.23555555555555552,-0.22666666666666668,-0.41333333333333333,0.022222222222222143,0.9288888888888889,1.0,-0.6977777777777778,-1.0,-0.08256880733944949,0.35779816513761475,0.761467889908257,0.724770642201835,1.0,0.8899082568807339,0.5229357798165137,-1.0,-0.5652173913043479,0.5826086956521739,1
-0.08256880733944949,0.35779816513761475,0.761467889908257,0.724770642201835,1.0,0.8899082568807339,0.5229357798165137,-1.0,-0.5652173913043479,0.5826086956521739,0.0608695652173914,-0.32173913043478264,0.6347826086956523,1.0,-1.0,-0.7217391304347827,0.921259842519685,-0.21259842519685035,0.03937007874015741,0.21259842519685046,1
0.0608695652173914,-0.32173913043478264,0.6347826086956523,1.0,-1.0,-0.7217391304347827,0.921259842519685,-0.21259842519685035,0.03937007874015741,0.21259842519685046,-0.7795275590551181,-1.0,-0.6850393700787402,1.0,0.42553191489361697,0.2978723404255319,0.2978723404255319,1.0,0.5106382978723405,-1.0,1
-0.7795275590551181,-1.0,-0.6850393700787402,1.0,0.42553191489361697,0.2978723404255319,0.2978723404255319,1.0,0.5106382978723405,-1.0,-0.5957446808510638,-0.42553191489361697,-0.6423841059602649,-0.1920529801324503,-0.5894039735099338,-1.0,-0.17880794701986757,1.0,0.08609271523178808,0.07284768211920523,1
-0.5957446808510638,-0.42553191489361697,-0.6423841059602649,-0.1920529801324503,-0.5894039735099338,-1.0,-0.17880794701986757,1.0,0.08609271523178808,0.07284768211920523,0.04761904761904767,0.3214285714285714,1.0,0.6547619047619047,-0.20238095238095233,0.16666666666666674,-1.0,-0.13095238095238093,-0.21052631578947367,-0.052631578947368474,1
0.04761904761904767,0.3214285714285714,1.0,0.6547619047619047,-0.20238095238095233,0.16666666666666674,-1.0,-0.13095238095238093,-0.21052631578947367,-0.052631578947368474,-0.1578947368421053,0.0,1.0,-1.0,-0.49122807017543857,-0.24561403508771928,0.603448275862069,0.10344827586206895,-0.2931034482758621,-0.31034482758620685,1
-0.1578947368421053,0.0,1.0,-1.0,-0.49122807017543857,-0.24561403508771928,0.603448275862069,0.10344827586206895,-0.2931034482758621,-0.31034482758620685,-0.22413793103448276,0.4482758620689655,-1.0,1.0,-0.5604395604395604,-0.7362637362637363,-0.4285714285714286,-0.05494505494505497,-0.09890109890109888,-1.0,1
-0.22413793103448276,0.4482758620689655,-1.0,1.0,-0.5604395604395604,-0.7362637362637363,-0.4285714285714286,-0.05494505494505497,-0.09890109890109888,-1.0,-0.7802197802197802,1.0,-0.8867924528301887,0.24528301886792447,0.3018867924528301,0.26415094339622636,0.3396226415094339,1.0,-1.0,-0.5849056603773585,1
-0.7802197802197802,1.0,-0.8867924528301887,0.24528301886792447,0.3018867924528301,0.26415094339622636,0.3396226415094339,1.0,-1.0,-0.5849056603773585,0.2923076923076924,-0.3846153846153846,-0.4461538461538461,-0.07692307692307687,-1.0,-0.6923076923076923,0.8769230769230769,1.0,0.6981132075471699,0.320754716981132,1
0.2923076923076924,-0.3846153846153846,-0.4461538461538461,-0.07692307692307687,-1.0,-0.6923076923076923,0.8769230769230769,1.0,0.6981132075471699,0.320754716981132,-0.7358490566037736,0.13207547169811318,1.0,0.8490566037735849,-0.6981132075471699,-1.0,0.33333333333333326,0.08108108108108114,0.36936936936936937,-1.0,1
-0.7358490566037736,0.13207547169811318,1.0,0.8490566037735849,-0.6981132075471699,-1.0,0.33333333333333326,0.08108108108108114,0.36936936936936937,-1.0,0.3153153153153154,-0.36936936936936937,1.0,0.4234234234234233,-0.00952380952380949,-0.4666666666666667,-0.3904761904761904,0.8666666666666667,-0.12380952380952381,1.0,1
0.3153153153153154,-0.36936936936936937,1.0,0.4234234234234233,-0.00952380952380949,-0.4666666666666667,-0.3904761904761904,0.8666666666666667,-0.12380952380952381,1.0,-1.0,-0.7523809523809524,-0.18965517241379315,0.5172413793103448,0.5172413793103448,1.0,0.13793103448275867,-0.2068965517241379,-1.0,0.4310344827586208,1
-1.0,-0.7523809523809524,-0.18965517241379315,0.5172413793103448,0.5172413793103448,1.0,0.13793103448275867,-0.2068965517241379,-1.0,0.4310344827586208,-0.31034482758620685,-0.4620689655172414,-0.5862068965517242,-1.0,-0.3793103448275862,1.0,-0.4896551724137931,-0.21379310344827585,0.31034482758620685,0.19999999999999996,1
-0.31034482758620685,-0.4620689655172414,-0.5862068965517242,-1.0,-0.3793103448275862,1.0,-0.4896551724137931,-0.21379310344827585,0.31034482758620685,0.19999999999999996,0.020689655172413834,1.0,0.42068965517241375,-1.0,0.9862068965517241,0.9586206896551723,-0.33333333333333337,0.7204301075268817,1.0,0.4623655913978495,1
0.020689655172413834,1.0,0.42068965517241375,-1.0,0.9862068965517241,0.9586206896551723,-0.33333333333333337,0.7204301075268817,1.0,0.4623655913978495,0.6989247311827957,0.26881720430107525,-1.0,-0.3978494623655914,0.9787234042553192,-0.6382978723404256,-0.34042553191489366,-1.0,-0.1063829787234043,-0.34042553191489366,1
0.6989247311827957,0.26881720430107525,-1.0,-0.3978494623655914,0.9787234042553192,-0.6382978723404256,-0.34042553191489366,-1.0,-0.1063829787234043,-0.34042553191489366,0.38297872340425543,1.0,-0.9389312977099237,-0.0992366412213741,-0.40458015267175573,-1.0,0.17557251908396942,1.0,-0.46564885496183206,-0.43511450381679384,1
0.38297872340425543,1.0,-0.9389312977099237,-0.0992366412213741,-0.40458015267175573,-1.0,0.17557251908396942,1.0,-0.46564885496183206,-0.43511450381679384,-0.19148936170212771,0.27659574468085113,0.36170212765957444,0.5319148936170213,0.5106382978723405,1.0,-0.6382978723404256,-1.0,0.6481481481481481,0.5185185185185186,1
-0.19148936170212771,0.27659574468085113,0.36170212765957444,0.5319148936170213,0.5106382978723405,1.0,-0.6382978723404256,-1.0,0.6481481481481481,0.5185185185185186,0.2777777777777777,-0.01851851851851849,-1.0,0.962962962962963,0.2777777777777777,1.0,0.4358974358974359,-0.02564102564102566,-0.28205128205128205,1.0,1
0.2777777777777777,-0.01851851851851849,-1.0,0.962962962962963,0.2777777777777777,1.0,0.4358974358974359,-0.02564102564102566,-0.28205128205128205,1.0,0.23076923076923084,-0.4358974358974359,-1.0,-0.33333333333333337,-0.5576923076923077,-0.1923076923076923,-0.13461538461538458,0.03846153846153855,-0.8269230769230769,1.0,1
0.23076923076923084,-0.4358974358974359,-1.0,-0.33333333333333337,-0.5576923076923077,-0.1923076923076923,-0.13461538461538458,0.03846153846153855,-0.8269230769230769,1.0,0.09615384615384626,-1.0,0.14814814814814814,-0.2962962962962963,-0.8148148148148149,-1.0,0.7037037037037037,1.0,0.22222222222222232,-0.7777777777777778,1
0.09615384615384626,-1.0,0.14814814814814814,-0.2962962962962963,-0.8148148148148149,-1.0,0.7037037037037037,1.0,0.22222222222222232,-0.7777777777777778,0.47239263803680975,0.5705521472392638,0.6319018404907975,1.0,-0.16564417177914115,-1.0,0.5460122699386503,0.6809815950920246,-0.18811881188118806,-0.18811881188118806,1
0.47239263803680975,0.5705521472392638,0.6319018404907975,1.0,-0.16564417177914115,-1.0,0.5460122699386503,0.6809815950920246,-0.18811881188118806,-0.18811881188118806,-0.26732673267326734,-1.0,-0.5841584158415842,1.0,-0.801980198019802,0.3267326732673268,-0.36585365853658536,-0.5121951219512195,-0.5121951219512195,-0.1707317073170732,1
-0.26732673267326734,-1.0,-0.5841584158415842,1.0,-0.801980198019802,0.3267326732673268,-0.36585365853658536,-0.5121951219512195,-0.5121951219512195,-0.1707317073170732,0.41463414634146334,0.3170731707317074,1.0,-1.0,0.240506329113924,0.7215189873417722,0.620253164556962,0.4683544303797469,1.0,0.4177215189873418,1
0.41463414634146334,0.3170731707317074,1.0,-1.0,0.240506329113924,0.7215189873417722,0.620253164556962,0.4683544303797469,1.0,0.4177215189873418,-0.8227848101265822,-1.0,-0.5609756097560976,-0.36585365853658536,-0.1544715447154471,-0.5447154471544715,-1.0,0.33333333333333326,1.0,0.7723577235772359,1
-0.8227848101265822,-1.0,-0.5609756097560976,-0.36585365853658536,-0.1544715447154471,-0.5447154471544715,-1.0,0.33333333333333326,1.0,0.7723577235772359,-0.1428571428571429,0.2571428571428571,-0.8285714285714285,0.3142857142857143,-1.0,1.0,0.6000000000000001,-0.6571428571428571,0.6000000000000001,-0.30000000000000004,1
-0.1428571428571429,0.2571428571428571,-0.8285714285714285,0.3142857142857143,-1.0,1.0,0.6000000000000001,-0.6571428571428571,0.6000000000000001,-0.30000000000000004,-0.95,0.625,1.0,-0.32499999999999996,-0.375,-1.0,0.41666666666666674,0.16666666666666674,0.6944444444444444,-0.13888888888888884,1
-0.95,0.625,1.0,-0.32499999999999996,-0.375,-1.0,0.41666666666666674,0.16666666666666674,0.6944444444444444,-0.13888888888888884,0.41666666666666674,-0.75,-1.0,1.0,-0.24528301886792447,-0.4339622641509434,-0.9622641509433962,-1.0,-0.9245283018867925,0.509433962264151,1
0.41666666666666674,-0.75,-1.0,1.0,-0.24528301886792447,-0.4339622641509434,-0.9622641509433962,-1.0,-0.9245283018867925,0.509433962264151,1.0,-0.8113207547169812,0.5384615384615385,0.17948717948717952,-0.07692307692307687,-0.5897435897435898,-1.0,-1.0,1.0,0.7948717948717949,1
1.0,-0.8113207547169812,0.5384615384615385,0.17948717948717952,-0.07692307692307687,-0.5897435897435898,-1.0,-1.0,1.0,0.7948717948717949,0.3214285714285714,-0.0714285714285714,0.0714285714285714,0.75,1.0,0.03571428571428581,-0.8928571428571429,-1.0,-1.0,0.08196721311475419,1
0.3214285714285714,-0.0714285714285714,0.0714285714285714,0.75,1.0,0.03571428571428581,-0.8928571428571429,-1.0,-1.0,0.08196721311475419,0.24590163934426235,-0.34426229508196726,-0.180327868852459,0.278688524590164,1.0,0.639344262295082,0.07246376811594213,-0.7101449275362319,-1.0,-0.10144927536231885,1
0.24590163934426235,-0.34426229508196726,-0.180327868852459,0.278688524590164,1.0,0.639344262295082,0.07246376811594213,-0.7101449275362319,-1.0,-0.10144927536231885,-0.8260869565217391,-0.7101449275362319,-0.04347826086956519,1.0,0.09333333333333327,0.43999999999999995,0.52,0.28,1.0,-1.0,1
-0.8260869565217391,-0.7101449275362319,-0.04347826086956519,1.0,0.09333333333333327,0.43999999999999995,0.52,0.28,1.0,-1.0,0.01333333333333342,0.09333333333333327,1.0,0.7,0.6000000000000001,0.2333333333333334,-1.0,-0.9,-0.06666666666666665,0.2666666666666666,1
0.01333333333333342,0.09333333333333327,1.0,0.7,0.6000000000000001,0.2333333333333334,-1.0,-0.9,-0.06666666666666665,0.2666666666666666,-0.9130434782608696,-1.0,-0.4782608695652174,-0.30434782608695654,0.4782608695652173,1.0,-0.30434782608695654,-0.6521739130434783,-0.5,1.0,1
-0.9130434782608696,-1.0,-0.4782608695652174,-0.30434782608695654,0.4782608695652173,1.0,-0.30434782608695654,-0.6521739130434783,-0.5,1.0,0.10000000000000009,-0.4,-0.6,-1.0,0.8999999999999999,-0.5,-0.08571428571428574,0.6000000000000001,0.3999999999999999,0.8571428571428572,1
0.10000000000000009,-0.4,-0.6,-1.0,0.8999999999999999,-0.5,-0.08571428571428574,0.6000000000000001,0.3999999999999999,0.8571428571428572,1.0,0.34285714285714275,-1.0,0.5142857142857142,0.0714285714285714,-0.5714285714285714,-0.5,-0.3928571428571429,1.0,-1.0,1
1.0,0.34285714285714275,-1.0,0.5142857142857142,0.0714285714285714,-0.5714285714285714,-0.5,-0.3928571428571429,1.0,-1.0,-0.0714285714285714,0.0,-0.9047619047619048,-0.8571428571428572,-0.7142857142857143,-1.0,-0.6666666666666667,1.0,-0.5238095238095238,-0.8095238095238095,1
-0.0714285714285714,0.0,-0.9047619047619048,-0.8571428571428572,-0.7142857142857143,-1.0,-0.6666666666666667,1.0,-0.5238095238095238,-0.8095238095238095,-1.0,0.4482758620689655,0.896551724137931,0.8275862068965518,0.9655172413793103,1.0,0.896551724137931,0.6551724137931034,-0.7586206896551724,-1.0,1
-1.0,0.4482758620689655,0.896551724137931,0.8275862068965518,0.9655172413793103,1.0,0.896551724137931,0.6551724137931034,-0.7586206896551724,-1.0,-0.6206896551724138,0.13793103448275867,-0.48275862068965514,-0.5862068965517242,1.0,0.31034482758620685,0.33333333333333326,1.0,0.6888888888888889,0.5333333333333334,1
-0.6206896551724138,0.13793103448275867,-0.48275862068965514,-0.5862068965517242,1.0,0.31034482758620685,0.33333333333333326,1.0,0.6888888888888889,0.5333333333333334,0.8,0.4444444444444444,-1.0,-0.0888888888888889,0.40740740740740744,-1.0,1.0,0.7037037037037037,0.7777777777777777,0.33333333333333326,1
0.8,0.4444444444444444,-1.0,-0.0888888888888889,0.40740740740740744,-1.0,1.0,0.7037037037037037,0.7777777777777777,0.33333333333333326,-0.2592592592592593,0.8518518518518519,0.19999999999999996,-0.0117647058823529,-0.8117647058823529,-1.0,-0.8588235294117648,-0.6941176470588235,0.22352941176470598,1.0,1
-0.2592592592592593,0.8518518518518519,0.19999999999999996,-0.0117647058823529,-0.8117647058823529,-1.0,-0.8588235294117648,-0.6941176470588235,0.22352941176470598,1.0,1.0,0.4878048780487805,0.8048780487804879,0.2682926829268293,0.7804878048780488,0.6585365853658536,-0.5853658536585367,-1.0,-1.0,-0.17293233082706772,1
1.0,0.4878048780487805,0.8048780487804879,0.2682926829268293,0.7804878048780488,0.6585365853658536,-0.5853658536585367,-1.0,-1.0,-0.17293233082706772,0.09774436090225569,0.744360902255639,0.06766917293233088,0.007518796992481258,0.4285714285714286,1.0,0.9230769230769231,0.6153846153846154,0.26923076923076916,0.019230769230769162,1
0.09774436090225569,0.744360902255639,0.06766917293233088,0.007518796992481258,0.4285714285714286,1.0,0.9230769230769231,0.6153846153846154,0.26923076923076916,0.019230769230769162,1.0,0.3846153846153846,0.0,-1.0,-0.7931034482758621,0.7241379310344827,0.8275862068965518,0.13793103448275867,1.0,0.9310344827586208,1
1.0,0.3846153846153846,0.0,-1.0,-0.7931034482758621,0.7241379310344827,0.8275862068965518,0.13793103448275867,1.0,0.9310344827586208,-0.1724137931034483,-1.0,-0.13043478260869568,-0.9565217391304348,-1.0,0.08695652173913038,-0.9565217391304348,-0.782608695652174,0.3913043478260869,1.0,1
-0.1724137931034483,-1.0,-0.13043478260869568,-0.9565217391304348,-1.0,0.08695652173913038,-0.9565217391304348,-0.782608695652174,0.3913043478260869,1.0,1.0,-0.24561403508771928,0.0,0.6140350877192982,-1.0,-0.8771929824561404,-0.7894736842105263,-0.7543859649122807,-0.7864077669902912,0.5145631067961165,1
1.0,-0.24561403508771928,0.0,0.6140350877192982,-1.0,-0.8771929824561404,-0.7894736842105263,-0.7543859649122807,-0.7864077669902912,0.5145631067961165,0.18446601941747565,0.47572815533980584,1.0,-1.0,0.49514563106796117,-0.3980582524271845,0.22807017543859653,-0.3099415204678363,-0.3450292397660819,-0.6023391812865497,1
0.18446601941747565,0.47572815533980584,1.0,-1.0,0.49514563106796117,-0.3980582524271845,0.22807017543859653,-0.3099415204678363,-0.3450292397660819,-0.6023391812865497,-1.0,0.6842105263157894,0.9298245614035088,1.0,0.06796116504854366,-0.5339805825242718,-0.4368932038834952,0.3203883495145632,0.6504854368932038,1.0,1
-1.0,0.6842105263157894,0.9298245614035088,1.0,0.06796116504854366,-0.5339805825242718,-0.4368932038834952,0.3203883495145632,0.6504854368932038,1.0,-1.0,-0.2621359223300971,-0.45185185185185184,-0.007407407407407418,0.45185185185185195,1.0,-1.0,0.5703703703703704,-0.5555555555555556,0.6296296296296295,1
-1.0,-0.2621359223300971,-0.45185185185185184,-0.007407407407407418,0.45185185185185195,1.0,-1.0,0.5703703703703704,-0.5555555555555556,0.6296296296296295,0.6199095022624435,0.41176470588235303,0.08597285067873295,0.31221719457013575,1.0,0.17647058823529416,0.3212669683257918,-1.0,-0.33333333333333337,0.07843137254901955,1
0.6199095022624435,0.41176470588235303,0.08597285067873295,0.31221719457013575,1.0,0.17647058823529416,0.3212669683257918,-1.0,-0.33333333333333337,0.07843137254901955,0.607843137254902,-1.0,-0.0980392156862745,-0.33333333333333337,0.13725490196078427,1.0,1.0,-0.16901408450704225,-0.5915492957746479,-0.46478873239436624,1
0.607843137254902,-1.0,-0.0980392156862745,-0.33333333333333337,0.13725490196078427,1.0,1.0,-0.16901408450704225,-0.5915492957746479,-0.46478873239436624,0.8873239436619718,-1.0,-0.8309859154929577,-0.619718309859155,-1.0,-0.39877300613496935,-0.3619631901840491,-0.018404907975460127,1.0,-0.6073619631901841,1
0.8873239436619718,-1.0,-0.8309859154929577,-0.619718309859155,-1.0,-0.39877300613496935,-0.3619631901840491,-0.018404907975460127,1.0,-0.6073619631901841,-0.9263803680981595,-0.23926380368098155,-0.9186991869918699,-0.8373983739837398,-0.2357723577235772,0.9837398373983739,1.0,-0.967479674796748,-0.6097560975609756,-1.0,1
-0.9263803680981595,-0.23926380368098155,-0.9186991869918699,-0.8373983739837398,-0.2357723577235772,0.9837398373983739,1.0,-0.967479674796748,-0.6097560975609756,-1.0,0.9532163742690059,0.894736842105263,0.3450292397660819,-0.35672514619883045,-1.0,0.16959064327485374,0.672514619883041,1.0,-1.0,-0.744,1
0.9532163742690059,0.894736842105263,0.3450292397660819,-0.35672514619883045,-1.0,0.16959064327485374,0.672514619883041,1.0,-1.0,-0.744,-0.42400000000000004,-0.536,1.0,-0.45599999999999996,-0.472,-0.264,-0.21250000000000002,-0.17500000000000004,-0.09999999999999998,0.03750000000000009,1
-0.42400000000000004,-0.536,1.0,-0.45599999999999996,-0.472,-0.264,-0.21250000000000002,-0.17500000000000004,-0.09999999999999998,0.03750000000000009,-0.21250000000000002,0.2250000000000001,1.0,-1.0,0.3290322580645162,0.6129032258064515,0.5225806451612902,0.3290322580645162,-0.058064516129032295,0.6387096774193548,1
-0.21250000000000002,0.2250000000000001,1.0,-1.0,0.3290322580645162,0.6129032258064515,0.5225806451612902,0.3290322580645162,-0.058064516129032295,0.6387096774193548,-1.0,1.0,0.5113636363636365,0.5,0.625,1.0,-1.0,0.4772727272727273,-0.2272727272727273,0.18181818181818188,1
-1.0,1.0,0.5113636363636365,0.5,0.625,1.0,-1.0,0.4772727272727273,-0.2272727272727273,0.18181818181818188,-0.33333333333333337,0.18181818181818188,0.1212121212121211,0.06060606060606055,-1.0,1.0,0.8181818181818181,0.4242424242424243,0.43065693430656937,0.3868613138686132,1
-0.33333333333333337,0.18181818181818188,0.1212121212121211,0.06060606060606055,-1.0,1.0,0.8181818181818181,0.4242424242424243,0.43065693430656937,0.3868613138686132,0.24087591240875916,-0.4014598540145985,-1.0,0.43065693430656937,1.0,0.635036496350365,1.0,0.5257731958762886,0.45360824742268036,0.39175257731958757,1
0.24087591240875916,-0.4014598540145985,-1.0,0.43065693430656937,1.0,0.635036496350365,1.0,0.5257731958762886,0.45360824742268036,0.39175257731958757,-1.0,0.3608247422680413,0.268041237113402,0.5463917525773196,1.0,0.4698795180722892,0.5662650602409638,-0.15662650602409633,-1.0,0.37349397590361444,1
-1.0,0.3608247422680413,0.268041237113402,0.5463917525773196,1.0,0.4698795180722892,0.5662650602409638,-0.15662650602409633,-1.0,0.37349397590361444,0.5421686746987953,-0.7228915662650602,0.20231213872832376,0.7109826589595376,0.32947976878612706,-0.09826589595375723,-1.0,1.0,0.4219653179190752,0.47976878612716756,1
0.5421686746987953,-0.7228915662650602,0.20231213872832376,0.7109826589595376,0.32947976878612706,-0.09826589595375723,-1.0,1.0,0.4219653179190752,0.47976878612716756,-0.5882352941176471,0.2549019607843137,0.3137254901960784,1.0,-0.43137254901960786,-1.0,0.13725490196078427,-0.6666666666666667,-0.4354838709677419,-0.7741935483870968,1
-0.5882352941176471,0.2549019607843137,0.3137254901960784,1.0,-0.43137254901960786,-1.0,0.13725490196078427,-0.6666666666666667,-0.4354838709677419,-0.7741935483870968,-0.6129032258064516,1.0,0.20967741935483875,-0.12903225806451613,-0.4032258064516129,-1.0,-0.2914285714285715,0.28,0.040000000000000036,-1.0,1
-0.6129032258064516,1.0,0.20967741935483875,-0.12903225806451613,-0.4032258064516129,-1.0,-0.2914285714285715,0.28,0.040000000000000036,-1.0,0.2342857142857142,0.21142857142857152,-0.1885714285714286,1.0,0.738562091503268,0.5032679738562091,1.0,1.0,-1.0,0.7254901960784315,1
0.2342857142857142,0.21142857142857152,-0.1885714285714286,1.0,0.738562091503268,0.5032679738562091,1.0,1.0,-1.0,0.7254901960784315,0.5686274509803921,0.9738562091503269,-1.0,0.23893805309734506,-0.09734513274336287,-0.5575221238938053,0.5575221238938053,-0.026548672566371723,1.0,0.026548672566371723,1
0.5686274509803921,0.9738562091503269,-1.0,0.23893805309734506,-0.09734513274336287,-0.5575221238938053,0.5575221238938053,-0.026548672566371723,1.0,0.026548672566371723,-0.6470588235294117,-0.25133689839572193,-0.19786096256684493,0.9786096256684491,0.4545454545454546,-0.2620320855614974,-1.0,1.0,0.7360406091370559,0.14720812182741128,1
-0.6470588235294117,-0.25133689839572193,-0.19786096256684493,0.9786096256684491,0.4545454545454546,-0.2620320855614974,-1.0,1.0,0.7360406091370559,0.14720812182741128,-0.025380710659898442,-1.0,0.6345177664974619,0.4314720812182742,1.0,0.10659898477157359,-0.7931034482758621,-0.31034482758620685,0.0049261083743843415,1.0,1
-0.025380710659898442,-1.0,0.6345177664974619,0.4314720812182742,1.0,0.10659898477157359,-0.7931034482758621,-0.31034482758620685,0.0049261083743843415,1.0,0.35960591133004915,-0.24137931034482762,0.270935960591133,-1.0,0.0117647058823529,-0.027450980392156876,0.0117647058823529,-0.1215686274509804,1.0,-0.04313725490196074,1
0.35960591133004915,-0.24137931034482762,0.270935960591133,-1.0,0.0117647058823529,-0.027450980392156876,0.0117647058823529,-0.1215686274509804,1.0,-0.04313725490196074,-0.3411764705882353,-1.0,0.2199170124481329,-0.12863070539419086,-0.48547717842323657,-1.0,-1.0,-0.13692946058091282,-0.3609958506224067,1.0,1
-0.3411764705882353,-1.0,0.2199170124481329,-0.12863070539419086,-0.48547717842323657,-1.0,-1.0,-0.13692946058091282,-0.3609958506224067,1.0,-0.0980392156862745,0.1843137254901961,0.3803921568627451,1.0,0.7882352941176471,0.0039215686274509665,-1.0,0.30980392156862746,-0.45945945945945943,-0.10810810810810811,1
-0.0980392156862745,0.1843137254901961,0.3803921568627451,1.0,0.7882352941176471,0.0039215686274509665,-1.0,0.30980392156862746,-0.45945945945945943,-0.10810810810810811,-0.5045045045045045,-0.6486486486486487,-0.5135135135135135,0.3153153153153154,1.0,-1.0,-0.3093525179856115,-0.9568345323741008,-0.6834532374100719,0.7985611510791366,1
-0.5045045045045045,-0.6486486486486487,-0.5135135135135135,0.3153153153153154,1.0,-1.0,-0.3093525179856115,-0.9568345323741008,-0.6834532374100719,0.7985611510791366,1.0,-1.0,-0.7697841726618705,1.0,-0.06666666666666665,0.2941176470588236,0.0980392156862746,-0.5607843137254902,1.0,0.21568627450980382,1
1.0,-1.0,-0.7697841726618705,1.0,-0.06666666666666665,0.2941176470588236,0.0980392156862746,-0.5607843137254902,1.0,0.21568627450980382,0.3019607843137255,-1.0,1.0,0.41333333333333333,0.15999999999999992,-1.0,-1.0,-0.31999999999999995,-0.10666666666666669,0.1200000000000001,1
0.3019607843137255,-1.0,1.0,0.41333333333333333,0.15999999999999992,-1.0,-1.0,-0.31999999999999995,-0.10666666666666669,0.1200000000000001,-1.0,-0.6533333333333333,-0.64,0.96,-0.053333333333333344,-0.17333333333333334,1.0,-0.5333333333333333,0.7538461538461538,0.8615384615384616,1
-1.0,-0.6533333333333333,-0.64,0.96,-0.053333333333333344,-0.17333333333333334,1.0,-0.5333333333333333,0.7538461538461538,0.8615384615384616,0.6307692307692307,0.8615384615384616,-1.0,0.46153846153846145,-0.5538461538461539,1.0,-0.19565217391304346,-0.5652173913043479,-0.3913043478260869,-0.17391304347826086,1
0.6307692307692307,0.8615384615384616,-1.0,0.46153846153846145,-0.5538461538461539,1.0,-0.19565217391304346,-0.5652173913043479,-0.3913043478260869,-0.17391304347826086,-1.0,-0.3913043478260869,1.0,-0.4782608695652174,0.32499999999999996,0.375,0.4624999999999999,-0.32499999999999996,-1.0,1.0,1
-1.0,-0.3913043478260869,1.0,-0.4782608695652174,0.32499999999999996,0.375,0.4624999999999999,-0.32499999999999996,-1.0,1.0,-0.42500000000000004,0.23750000000000004,-1.0,-0.8487394957983193,-0.8319327731092436,-0.025210084033613467,1.0,-0.2941176470588235,-0.9495798319327731,-0.73109243697479,1
-0.42500000000000004,0.23750000000000004,-1.0,-0.8487394957983193,-0.8319327731092436,-0.025210084033613467,1.0,-0.2941176470588235,-0.9495798319327731,-0.73109243697479,-0.6595744680851063,-0.574468085106383,-0.7872340425531915,-1.0,1.0,-0.1063829787234043,-0.7021276595744681,-0.7446808510638299,0.5,1.0,1
-0.6595744680851063,-0.574468085106383,-0.7872340425531915,-1.0,1.0,-0.1063829787234043,-0.7021276595744681,-0.7446808510638299,0.5,1.0,0.6666666666666667,-1.0,0.3571428571428572,0.45238095238095233,0.6666666666666667,0.9047619047619047,0.04347826086956519,-0.4782608695652174,-0.21739130434782605,-1.0,1
0.6666666666666667,-1.0,0.3571428571428572,0.45238095238095233,0.6666666666666667,0.9047619047619047,0.04347826086956519,-0.4782608695652174,-0.21739130434782605,-1.0,0.30434782608695654,1.0,0.30434782608695654,-0.21739130434782605,-1.0,-0.65625,-0.25,1.0,0.078125,-0.96875,1
0.30434782608695654,1.0,0.30434782608695654,-0.21739130434782605,-1.0,-0.65625,-0.25,1.0,0.078125,-0.96875,-0.3125,-0.671875,0.625,0.125,-0.5535714285714286,-0.9107142857142857,1.0,0.4285714285714286,-1.0,0.0535714285714286,1
-0.3125,-0.671875,0.625,0.125,-0.5535714285714286,-0.9107142857142857,1.0,0.4285714285714286,-1.0,0.0535714285714286,0.5373134328358209,0.4328358208955223,0.5074626865671641,1.0,-1.0,0.14925373134328357,0.5820895522388059,0.23880597014925375,1.0,0.6312056737588652,1
0.5373134328358209,0.4328358208955223,0.5074626865671641,1.0,-1.0,0.14925373134328357,0.5820895522388059,0.23880597014925375,1.0,0.6312056737588652,0.7446808510638299,-0.43262411347517726,-1.0,0.6879432624113475,0.9574468085106382,0.6737588652482269,-1.0,-0.44047619047619047,-0.48809523809523814,0.13095238095238093,1
0.7446808510638299,-0.43262411347517726,-1.0,0.6879432624113475,0.9574468085106382,0.6737588652482269,-1.0,-0.44047619047619047,-0.48809523809523814,0.13095238095238093,1.0,-0.4285714285714286,0.25,0.41666666666666674,-0.6842105263157895,0.08771929824561409,0.12280701754385959,-1.0,-0.9649122807017544,0.1578947368421053,1
1.0,-0.4285714285714286,0.25,0.41666666666666674,-0.6842105263157895,0.08771929824561409,0.12280701754385959,-1.0,-0.9649122807017544,0.1578947368421053,-0.22807017543859653,1.0,-0.23076923076923073,-0.4307692307692308,-0.46153846153846156,1.0,-1.0,-0.5384615384615384,-0.6461538461538461,-1.0,1
-0.22807017543859653,1.0,-0.23076923076923073,-0.4307692307692308,-0.46153846153846156,1.0,-1.0,-0.5384615384615384,-0.6461538461538461,-1.0,0.849624060150376,0.8345864661654134,0.9548872180451127,0.8195488721804511,-1.0,0.5488721804511278,0.6691729323308271,1.0,0.0535714285714286,0.25,1
0.849624060150376,0.8345864661654134,0.9548872180451127,0.8195488721804511,-1.0,0.5488721804511278,0.6691729323308271,1.0,0.0535714285714286,0.25,0.1785714285714286,0.0714285714285714,0.3214285714285714,0.9821428571428572,1.0,-1.0,-0.6521739130434783,-0.5652173913043479,-0.28985507246376807,1.0,1
0.1785714285714286,0.0714285714285714,0.3214285714285714,0.9821428571428572,1.0,-1.0,-0.6521739130434783,-0.5652173913043479,-0.28985507246376807,1.0,-0.6521739130434783,-1.0,-0.7391304347826086,-0.6086956521739131,0.6062992125984252,0.6062992125984252,0.1968503937007875,-1.0,1.0,0.8425196850393701,1
-0.6521739130434783,-1.0,-0.7391304347826086,-0.6086956521739131,0.6062992125984252,0.6062992125984252,0.1968503937007875,-1.0,1.0,0.8425196850393701,0.68503937007874,0.6692913385826771,0.06060606060606055,0.303030303030303,0.030303030303030276,1.0,-0.8484848484848485,-1.0,0.18181818181818188,0.18181818181818188,1
0.68503937007874,0.6692913385826771,0.06060606060606055,0.303030303030303,0.030303030303030276,1.0,-0.8484848484848485,-1.0,0.18181818181818188,0.18181818181818188,0.10843373493975905,0.06024096385542177,0.15662650602409633,1.0,-1.0,0.4698795180722892,0.0843373493975903,0.0843373493975903,0.4871794871794872,0.02564102564102555,1
0.10843373493975905,0.06024096385542177,0.15662650602409633,1.0,-1.0,0.4698795180722892,0.0843373493975903,0.0843373493975903,0.4871794871794872,0.02564102564102555,-0.07692307692307687,0.7435897435897436,-1.0,0.8974358974358974,1.0,0.4358974358974359,-0.6,-0.8,-1.0,-0.8,1
-0.07692307692307687,0.7435897435897436,-1.0,0.8974358974358974,1.0,0.4358974358974359,-0.6,-0.8,-1.0,-0.8,1.0,-0.8,-1.0,0.7,-0.17460317460317465,-0.39682539682539686,-0.4285714285714286,-1.0,1.0,-0.07936507936507942,1
1.0,-0.8,-1.0,0.7,-0.17460317460317465,-0.39682539682539686,-0.4285714285714286,-1.0,1.0,-0.07936507936507942,-0.39682539682539686,-0.46031746031746035,-0.7435897435897436,-1.0,-0.8461538461538461,1.0,-0.5641025641025641,-0.46153846153846156,-0.5897435897435898,-0.6666666666666667,1
-0.39682539682539686,-0.46031746031746035,-0.7435897435897436,-1.0,-0.8461538461538461,1.0,-0.5641025641025641,-0.46153846153846156,-0.5897435897435898,-0.6666666666666667,-0.28301886792452835,0.09433962264150941,-0.018867924528301883,1.0,-1.0,0.05660377358490565,0.09433962264150941,-0.2075471698113207,0.08108108108108114,0.29729729729729737,1
-0.28301886792452835,0.09433962264150941,-0.018867924528301883,1.0,-1.0,0.05660377358490565,0.09433962264150941,-0.2075471698113207,0.08108108108108114,0.29729729729729737,1.0,-1.0,-0.2432432432432432,0.8378378378378379,0.1351351351351351,-0.027027027027026973,0.8799999999999999,0.8799999999999999,0.6000000000000001,0.48,1
1.0,-1.0,-0.2432432432432432,0.8378378378378379,0.1351351351351351,-0.027027027027026973,0.8799999999999999,0.8799999999999999,0.6000000000000001,0.48,-1.0,0.0,0.96,1.0,-0.8,-0.525,-0.85,0.675,1.0,-1.0,1
-1.0,0.0,0.96,1.0,-0.8,-0.525,-0.85,0.675,1.0,-1.0,-0.75,-0.625,-0.04347826086956519,-0.15217391304347827,-0.08695652173913049,-1.0,1.0,-0.17391304347826086,0.19565217391304346,-0.6521739130434783,1
-0.75,-0.625,-0.04347826086956519,-0.15217391304347827,-0.08695652173913049,-1.0,1.0,-0.17391304347826086,0.19565217391304346,-0.6521739130434783,0.5952380952380953,0.16666666666666674,0.11904761904761907,1.0,-0.5238095238095238,-0.19047619047619047,-1.0,0.30952380952380953,-0.3138686131386861,-0.3722627737226277,1
0.5952380952380953,0.16666666666666674,0.11904761904761907,1.0,-0.5238095238095238,-0.19047619047619047,-1.0,0.30952380952380953,-0.3138686131386861,-0.3722627737226277,-0.2992700729927007,-0.021897810218978075,1.0,0.44525547445255476,-1.0,-0.5766423357664234,-0.7692307692307692,0.3076923076923077,-0.15384615384615385,-0.46153846153846156,1
-0.2992700729927007,-0.021897810218978075,1.0,0.44525547445255476,-1.0,-0.5766423357664234,-0.7692307692307692,0.3076923076923077,-0.15384615384615385,-0.46153846153846156,1.0,-1.0,0.3846153846153846,0.5384615384615385,0.08571428571428563,0.02857142857142847,0.1428571428571428,-0.4571428571428572,-1.0,0.1428571428571428,1
1.0,-1.0,0.3846153846153846,0.5384615384615385,0.08571428571428563,0.02857142857142847,0.1428571428571428,-0.4571428571428572,-1.0,0.1428571428571428,1.0,0.4285714285714286,-1.0,-0.9292035398230089,-0.8407079646017699,1.0,-0.504424778761062,-0.8938053097345133,-0.8053097345132744,-0.9469026548672567,1
1.0,0.4285714285714286,-1.0,-0.9292035398230089,-0.8407079646017699,1.0,-0.504424778761062,-0.8938053097345133,-0.8053097345132744,-0.9469026548672567,0.7894736842105263,1.0,0.605263157894737,-1.0,0.9210526315789473,0.23684210526315796,0.21052631578947367,-0.5263157894736843,-1.0,-0.5675675675675675,1
0.7894736842105263,1.0,0.605263157894737,-1.0,0.9210526315789473,0.23684210526315796,0.21052631578947367,-0.5263157894736843,-1.0,-0.5675675675675675,-0.5945945945945945,-0.45945945945945943,-0.10810810810810811,-0.08108108108108103,-0.9459459459459459,1.0,0.4285714285714286,-0.5357142857142857,-0.75,-0.2142857142857143,1
-0.5945945945945945,-0.45945945945945943,-0.10810810810810811,-0.08108108108108103,-0.9459459459459459,1.0,0.4285714285714286,-0.5357142857142857,-0.75,-0.2142857142857143,-1.0,-0.9285714285714286,1.0,0.0,0.0,0.23636363636363633,0.9454545454545455,1.0,-0.036363636363636376,-0.6,1
-1.0,-0.9285714285714286,1.0,0.0,0.0,0.23636363636363633,0.9454545454545455,1.0,-0.036363636363636376,-0.6,-1.0,-0.3090909090909091,-0.189873417721519,-0.08860759493670889,-0.6455696202531646,-1.0,-0.06329113924050633,0.39240506329113933,1.0,0.5949367088607596,1
-1.0,-0.3090909090909091,-0.189873417721519,-0.08860759493670889,-0.6455696202531646,-1.0,-0.06329113924050633,0.39240506329113933,1.0,0.5949367088607596,0.5106382978723405,0.7021276595744681,0.5319148936170213,0.8085106382978724,0.6170212765957446,0.7234042553191489,1.0,-1.0,-0.41666666666666663,-0.5416666666666667,1
0.5106382978723405,0.7021276595744681,0.5319148936170213,0.8085106382978724,0.6170212765957446,0.7234042553191489,1.0,-1.0,-0.41666666666666663,-0.5416666666666667,-0.5208333333333333,0.20833333333333326,-0.6666666666666667,-0.7291666666666667,-1.0,1.0,-0.7468354430379747,-0.9746835443037974,-0.9746835443037974,-1.0,1
-0.5208333333333333,0.20833333333333326,-0.6666666666666667,-0.7291666666666667,-1.0,1.0,-0.7468354430379747,-0.9746835443037974,-0.9746835443037974,-1.0,1.0,0.03797468354430378,0.08860759493670889,-0.11392405063291144,0.16129032258064524,0.35483870967741926,0.06451612903225801,0.09677419354838701,-1.0,1.0,1
1.0,0.03797468354430378,0.08860759493670889,-0.11392405063291144,0.16129032258064524,0.35483870967741926,0.06451612903225801,0.09677419354838701,-1.0,1.0,0.5806451612903225,0.935483870967742,0.9444444444444444,-0.05555555555555558,-0.33333333333333337,-0.8333333333333334,1.0,-0.4444444444444444,-0.05555555555555558,-1.0,1
0.5806451612903225,0.935483870967742,0.9444444444444444,-0.05555555555555558,-0.33333333333333337,-0.8333333333333334,1.0,-0.4444444444444444,-0.05555555555555558,-1.0,-0.06666666666666665,0.33333333333333326,-0.1333333333333333,1.0,0.2666666666666666,-0.2666666666666667,-1.0,-0.9333333333333333,0.25,-0.6666666666666667,1
-0.06666666666666665,0.33333333333333326,-0.1333333333333333,1.0,0.2666666666666666,-0.2666666666666667,-1.0,-0.9333333333333333,0.25,-0.6666666666666667,-1.0,0.625,0.5,1.0,0.5,-0.6666666666666667,0.11475409836065564,0.1912568306010929,0.10382513661202175,-1.0,1
-1.0,0.625,0.5,1.0,0.5,-0.6666666666666667,0.11475409836065564,0.1912568306010929,0.10382513661202175,-1.0,0.03825136612021862,1.0,0.5191256830601092,0.09289617486338808,-0.024390243902439046,0.9024390243902438,0.7073170731707317,0.2682926829268293,1.0,-0.6585365853658536,1
0.03825136612021862,1.0,0.5191256830601092,0.09289617486338808,-0.024390243902439046,0.9024390243902438,0.7073170731707317,0.2682926829268293,1.0,-0.6585365853658536,-1.0,0.46341463414634143,-0.23232323232323238,-0.7171717171717171,-0.7575757575757576,-0.8181818181818181,-1.0,0.6767676767676767,0.030303030303030276,1.0,1
-1.0,0.46341463414634143,-0.23232323232323238,-0.7171717171717171,-0.7575757575757576,-0.8181818181818181,-1.0,0.6767676767676767,0.030303030303030276,1.0,0.5294117647058822,-0.37254901960784315,-0.13725490196078427,1.0,-0.21568627450980393,-1.0,0.8431372549019607,0.019607843137254832,0.380281690140845,0.8873239436619718,1
0.5294117647058822,-0.37254901960784315,-0.13725490196078427,1.0,-0.21568627450980393,-1.0,0.8431372549019607,0.019607843137254832,0.380281690140845,0.8873239436619718,0.43661971830985924,0.09859154929577474,-0.5211267605633803,1.0,-1.0,-0.09859154929577463,1.0,0.5576923076923077,0.48076923076923084,0.8461538461538463,1
0.43661971830985924,0.09859154929577474,-0.5211267605633803,1.0,-1.0,-0.09859154929577463,1.0,0.5576923076923077,0.48076923076923084,0.8461538461538463,0.8076923076923077,0.42307692307692313,-0.7692307692307692,-1.0,-0.42056074766355145,-0.9439252336448598,-0.9439252336448598,-1.0,-0.5700934579439252,-0.8130841121495327,1
0.8076923076923077,0.42307692307692313,-0.7692307692307692,-1.0,-0.42056074766355145,-0.9439252336448598,-0.9439252336448598,-1.0,-0.5700934579439252,-0.8130841121495327,-0.6448598130841121,1.0,-1.0,-0.35185185185185186,-0.2777777777777778,-0.40740740740740744,-0.2407407407407407,1.0,-0.18518518518518523,-0.07407407407407407,1
-0.6448598130841121,1.0,-1.0,-0.35185185185185186,-0.2777777777777778,-0.40740740740740744,-0.2407407407407407,1.0,-0.18518518518518523,-0.07407407407407407,0.8275862068965518,0.6206896551724137,0.6724137931034482,1.0,0.9137931034482758,-0.4655172413793104,0.4655172413793103,-1.0,-1.0,-0.28,1
0.8275862068965518,0.6206896551724137,0.6724137931034482,1.0,0.9137931034482758,-0.4655172413793104,0.4655172413793103,-1.0,-1.0,-0.28,-0.392,-0.392,-0.264,0.3600000000000001,-0.07199999999999995,1.0,-0.36170212765957444,0.4042553191489362,-0.1063829787234043,0.4042553191489362,1
-0.392,-0.392,-0.264,0.3600000000000001,-0.07199999999999995,1.0,-0.36170212765957444,0.4042553191489362,-0.1063829787234043,0.4042553191489362,-0.021276595744680882,-0.06382978723404253,1.0,-1.0,-0.28,-1.0,-0.8133333333333334,-0.8666666666666667,-0.5466666666666666,-0.040000000000000036,1
-0.021276595744680882,-0.06382978723404253,1.0,-1.0,-0.28,-1.0,-0.8133333333333334,-0.8666666666666667,-0.5466666666666666,-0.040000000000000036,0.2533333333333334,1.0,1.0,0.22580645161290325,-0.4193548387096774,-0.032258064516129004,0.35483870967741926,0.4193548387096775,-0.22580645161290325,-1.0,1
0.2533333333333334,1.0,1.0,0.22580645161290325,-0.4193548387096774,-0.032258064516129004,0.35483870967741926,0.4193548387096775,-0.22580645161290325,-1.0,0.17460317460317465,-0.5555555555555556,-0.2063492063492064,1.0,0.015873015873015817,0.5873015873015872,-0.015873015873015928,-1.0,0.48453608247422686,1.0,1
0.17460317460317465,-0.5555555555555556,-0.2063492063492064,1.0,0.015873015873015817,0.5873015873015872,-0.015873015873015928,-1.0,0.48453608247422686,1.0,0.731958762886598,-1.0,-0.15463917525773196,-0.6701030927835052,0.7731958762886597,0.6494845360824741,0.7333333333333334,0.6000000000000001,0.9333333333333333,1.0,1
0.731958762886598,-1.0,-0.15463917525773196,-0.6701030927835052,0.7731958762886597,0.6494845360824741,0.7333333333333334,0.6000000000000001,0.9333333333333333,1.0,-1.0,0.8666666666666667,0.3999999999999999,-0.19999999999999996,-1.0,-0.275,0.07499999999999996,1.0,0.32499999999999996,0.10000000000000009,1
-1.0,0.8666666666666667,0.3999999999999999,-0.19999999999999996,-1.0,-0.275,0.07499999999999996,1.0,0.32499999999999996,0.10000000000000009,-0.275,-0.675,1.0,0.21739130434782616,-1.0,-0.1594202898550725,0.21739130434782616,-0.13043478260869568,-0.01449275362318836,0.3623188405797102,1
-0.275,-0.675,1.0,0.21739130434782616,-1.0,-0.1594202898550725,0.21739130434782616,-0.13043478260869568,-0.01449275362318836,0.3623188405797102,-1.0,-0.28358208955223885,0.4328358208955223,-0.4626865671641791,-0.7313432835820896,1.0,0.8507462686567164,-0.16417910447761197,0.6097560975609757,0.12195121951219523,1
-1.0,-0.28358208955223885,0.4328358208955223,-0.4626865671641791,-0.7313432835820896,1.0,0.8507462686567164,-0.16417910447761197,0.6097560975609757,0.12195121951219523,0.07317073170731714,-1.0,0.1707317073170731,1.0,-0.7560975609756098,-0.2682926829268293,0.33333333333333326,-0.08333333333333337,-0.19444444444444442,-1.0,1
0.07317073170731714,-1.0,0.1707317073170731,1.0,-0.7560975609756098,-0.2682926829268293,0.33333333333333326,-0.08333333333333337,-0.19444444444444442,-1.0,-0.33333333333333337,0.5277777777777777,0.13888888888888884,1.0,-0.5268817204301075,-0.935483870967742,-1.0,0.22580645161290325,1.0,-0.8709677419354839,1
-0.33333333333333337,0.5277777777777777,0.13888888888888884,1.0,-0.5268817204301075,-0.935483870967742,-1.0,0.22580645161290325,1.0,-0.8709677419354839,-0.6989247311827957,-0.07526881720430112,-0.21052631578947367,0.17543859649122817,0.07017543859649122,-1.0,0.631578947368421,0.7017543859649122,1.0,-0.7192982456140351,1
-0.6989247311827957,-0.07526881720430112,-0.21052631578947367,0.17543859649122817,0.07017543859649122,-1.0,0.631578947368421,0.7017543859649122,1.0,-0.7192982456140351,0.4244604316546763,-0.15107913669064743,-0.3381294964028777,0.9568345323741008,-0.15107913669064743,-1.0,-0.7553956834532374,1.0,-0.008264462809917328,0.20661157024793386,1
0.4244604316546763,-0.15107913669064743,-0.3381294964028777,0.9568345323741008,-0.15107913669064743,-1.0,-0.7553956834532374,1.0,-0.008264462809917328,0.20661157024793386,0.12396694214876036,-1.0,0.3719008264462811,0.4545454545454546,1.0,-0.5206611570247934,0.625,0.75,0.7,0.7250000000000001,1
0.12396694214876036,-1.0,0.3719008264462811,0.4545454545454546,1.0,-0.5206611570247934,0.625,0.75,0.7,0.7250000000000001,-0.375,0.3999999999999999,1.0,-1.0,-0.4339622641509434,-0.5094339622641509,-0.5471698113207547,-0.24528301886792447,-1.0,0.1132075471698113,1
-0.375,0.3999999999999999,1.0,-1.0,-0.4339622641509434,-0.5094339622641509,-0.5471698113207547,-0.24528301886792447,-1.0,0.1132075471698113,0.09433962264150941,1.0,0.8139534883720929,0.5348837209302326,0.20930232558139528,-0.6744186046511628,-1.0,0.2558139534883721,1.0,0.9069767441860466,1
0.09433962264150941,1.0,0.8139534883720929,0.5348837209302326,0.20930232558139528,-0.6744186046511628,-1.0,0.2558139534883721,1.0,0.9069767441860466,-0.34693877551020413,-1.0,-0.8367346938775511,-0.30612244897959184,-0.1428571428571429,1.0,-1.0,-1.0,1.0,0.02941176470588225,1
-0.34693877551020413,-1.0,-0.8367346938775511,-0.30612244897959184,-0.1428571428571429,1.0,-1.0,-1.0,1.0,0.02941176470588225,0.05882352941176472,-0.02941176470588236,0.6764705882352942,-1.0,0.4411764705882353,0.3529411764705883,-1.0,0.36296296296296293,0.3037037037037038,-0.007407407407407418,1
0.05882352941176472,-0.02941176470588236,0.6764705882352942,-1.0,0.4411764705882353,0.3529411764705883,-1.0,0.36296296296296293,0.3037037037037038,-0.007407407407407418,-0.7777777777777778,1.0,0.3185185185185184,-0.03703703703703709,0.5211267605633803,0.19718309859154926,0.295774647887324,-1.0,-0.3098591549295775,-0.3802816901408451,1
-0.7777777777777778,1.0,0.3185185185185184,-0.03703703703703709,0.5211267605633803,0.19718309859154926,0.295774647887324,-1.0,-0.3098591549295775,-0.3802816901408451,1.0,-0.19718309859154926,-1.0,-0.7586206896551724,-0.6896551724137931,-0.6206896551724138,1.0,-0.7241379310344828,-0.5172413793103448,-0.2068965517241379,1
1.0,-0.19718309859154926,-1.0,-0.7586206896551724,-0.6896551724137931,-0.6206896551724138,1.0,-0.7241379310344828,-0.5172413793103448,-0.2068965517241379,-0.6783216783216783,-0.7062937062937062,-0.5944055944055944,1.0,0.07692307692307687,-0.7342657342657343,-1.0,-0.4405594405594405,0.3076923076923077,0.09615384615384626,1
-0.6783216783216783,-0.7062937062937062,-0.5944055944055944,1.0,0.07692307692307687,-0.7342657342657343,-1.0,-0.4405594405594405,0.3076923076923077,0.09615384615384626,0.07692307692307687,0.34615384615384626,0.6923076923076923,1.0,-1.0,-0.9230769230769231,-0.6,-0.4,-0.19999999999999996,-1.0,1
0.07692307692307687,0.34615384615384626,0.6923076923076923,1.0,-1.0,-0.9230769230769231,-0.6,-0.4,-0.19999999999999996,-1.0,0.07499999999999996,1.0,-0.025000000000000022,0.25,1.0,0.3793103448275863,0.33793103448275863,0.43448275862068964,0.5310344827586206,0.048275862068965614,1
0.07499999999999996,1.0,-0.025000000000000022,0.25,1.0,0.3793103448275863,0.33793103448275863,0.43448275862068964,0.5310344827586206,0.048275862068965614,0.006896551724137945,-1.0,-0.0456431535269709,-0.08713692946058094,-0.29460580912863066,-0.6929460580912863,-0.7759336099585062,-1.0,-0.10373443983402486,1.0,1
0.006896551724137945,-1.0,-0.0456431535269709,-0.08713692946058094,-0.29460580912863066,-0.6929460580912863,-0.7759336099585062,-1.0,-0.10373443983402486,1.0,0.22222222222222232,-0.12962962962962965,0.05555555555555558,0.962962962962963,0.7777777777777777,0.9444444444444444,1.0,-1.0,-0.33333333333333337,1.0,1
0.22222222222222232,-0.12962962962962965,0.05555555555555558,0.962962962962963,0.7777777777777777,0.9444444444444444,1.0,-1.0,-0.33333333333333337,1.0,0.9506172839506173,0.08641975308641969,0.3580246913580247,0.6296296296296295,-1.0,-0.40740740740740744,-0.06666666666666665,-0.0461538461538461,-0.28205128205128205,1.0,1
0.9506172839506173,0.08641975308641969,0.3580246913580247,0.6296296296296295,-1.0,-0.40740740740740744,-0.06666666666666665,-0.0461538461538461,-0.28205128205128205,1.0,0.558974358974359,0.02564102564102555,-0.3538461538461538,-1.0,0.8743961352657006,0.78743961352657,0.961352657004831,-0.12077294685990336,-0.41062801932367154,1.0,1
0.558974358974359,0.02564102564102555,-0.3538461538461538,-1.0,0.8743961352657006,0.78743961352657,0.961352657004831,-0.12077294685990336,-0.41062801932367154,1.0,-1.0,0.932367149758454,-0.08670520231213874,-0.3179190751445087,-0.3063583815028902,0.20231213872832376,-0.5260115606936416,-1.0,1.0,0.5606936416184971,1
-1.0,0.932367149758454,-0.08670520231213874,-0.3179190751445087,-0.3063583815028902,0.20231213872832376,-0.5260115606936416,-1.0,1.0,0.5606936416184971,-0.096045197740113,-0.2542372881355932,-0.423728813559322,0.07344632768361592,-1.0,1.0,-0.2994350282485876,-0.5141242937853108,-0.5675675675675675,0.32432432432432434,1
-0.096045197740113,-0.2542372881355932,-0.423728813559322,0.07344632768361592,-1.0,1.0,-0.2994350282485876,-0.5141242937853108,-0.5675675675675675,0.32432432432432434,0.4054054054054055,1.0,0.3783783783783783,-1.0,0.29729729729729737,0.5675675675675675,1.0,-0.2038834951456311,-0.30097087378640774,-0.7669902912621359,1
0.4054054054054055,1.0,0.3783783783783783,-1.0,0.29729729729729737,0.5675675675675675,1.0,-0.2038834951456311,-0.30097087378640774,-0.7669902912621359,-1.0,0.6504854368932038,0.5145631067961165,-0.7864077669902912,-0.36,-0.29333333333333333,-0.21333333333333337,0.6266666666666667,-0.07999999999999996,-1.0,1
-1.0,0.6504854368932038,0.5145631067961165,-0.7864077669902912,-0.36,-0.29333333333333333,-0.21333333333333337,0.6266666666666667,-0.07999999999999996,-1.0,0.8266666666666667,1.0,1.0,0.306532663316583,0.18592964824120606,-0.18592964824120606,0.5276381909547738,0.27638190954773867,-1.0,-0.5276381909547738,1
0.8266666666666667,1.0,1.0,0.306532663316583,0.18592964824120606,-0.18592964824120606,0.5276381909547738,0.27638190954773867,-1.0,-0.5276381909547738,-0.5555555555555556,0.6209150326797386,0.8169934640522876,0.6993464052287581,1.0,-0.0326797385620915,-1.0,0.6601307189542485,-0.1428571428571429,-0.04395604395604391,1
-0.5555555555555556,0.6209150326797386,0.8169934640522876,0.6993464052287581,1.0,-0.0326797385620915,-1.0,0.6601307189542485,-0.1428571428571429,-0.04395604395604391,-0.03296703296703296,-0.2417582417582418,-1.0,1.0,-0.08791208791208793,-0.34065934065934067,1.0,0.21621621621621623,0.027027027027026973,-0.027027027027026973,1
-0.03296703296703296,-0.2417582417582418,-1.0,1.0,-0.08791208791208793,-0.34065934065934067,1.0,0.21621621621621623,0.027027027027026973,-0.027027027027026973,0.5675675675675675,-1.0,-0.08108108108108103,-0.10810810810810811,-1.0,-0.42028985507246375,-0.3816425120772947,-0.32367149758454106,-0.23671497584541068,0.22705314009661826,1
0.5675675675675675,-1.0,-0.08108108108108103,-0.10810810810810811,-1.0,-0.42028985507246375,-0.3816425120772947,-0.32367149758454106,-0.23671497584541068,0.22705314009661826,1.0,-0.33333333333333337,0.6153846153846154,0.9230769230769231,0.9230769230769231,1.0,-1.0,0.5384615384615385,-0.5384615384615384,-0.5384615384615384,1
1.0,-0.33333333333333337,0.6153846153846154,0.9230769230769231,0.9230769230769231,1.0,-1.0,0.5384615384615385,-0.5384615384615384,-0.5384615384615384,-0.9589041095890412,-0.09589041095890416,0.09589041095890405,0.31506849315068486,0.15068493150684925,1.0,-1.0,-0.4383561643835616,-0.1594202898550725,0.2318840579710144,1
-0.9589041095890412,-0.09589041095890416,0.09589041095890405,0.31506849315068486,0.15068493150684925,1.0,-1.0,-0.4383561643835616,-0.1594202898550725,0.2318840579710144,1.0,-0.17391304347826086,-0.6376811594202898,0.13043478260869557,-0.2028985507246377,-1.0,1.0,0.6934306569343065,0.12408759124087587,0.7956204379562044,1
1.0,-0.17391304347826086,-0.6376811594202898,0.13043478260869557,-0.2028985507246377,-1.0,1.0,0.6934306569343065,0.12408759124087587,0.7956204379562044,0.8978102189781021,0.4890510948905109,-1.0,-0.2846715328467153,-0.3412698412698413,-0.45238095238095233,-0.6349206349206349,-0.9841269841269842,-1.0,-0.873015873015873,1
0.8978102189781021,0.4890510948905109,-1.0,-0.2846715328467153,-0.3412698412698413,-0.45238095238095233,-0.6349206349206349,-0.9841269841269842,-1.0,-0.873015873015873,1.0,0.6984126984126984,-0.8780487804878049,-0.14634146341463417,-0.4390243902439024,0.2682926829268293,0.7560975609756098,-0.5609756097560976,-1.0,1.0,1
1.0,0.6984126984126984,-0.8780487804878049,-0.14634146341463417,-0.4390243902439024,0.2682926829268293,0.7560975609756098,-0.5609756097560976,-1.0,1.0,0.6385542168674698,-0.1807228915662651,-1.0,1.0,0.4698795180722892,-0.5421686746987953,-0.9518072289156626,-0.5662650602409638,0.5220125786163523,0.03144654088050314,1
0.6385542168674698,-0.1807228915662651,-1.0,1.0,0.4698795180722892,-0.5421686746987953,-0.9518072289156626,-0.5662650602409638,0.5220125786163523,0.03144654088050314,0.5345911949685536,0.23270440251572322,0.14465408805031443,1.0,-0.6477987421383649,-1.0,-1.0,-0.20197044334975367,-0.24137931034482762,-0.6650246305418719,1
0.5345911949685536,0.23270440251572322,0.14465408805031443,1.0,-0.6477987421383649,-1.0,-1.0,-0.20197044334975367,-0.24137931034482762,-0.6650246305418719,-0.15270935960591137,1.0,0.9507389162561577,1.0,0.7846153846153847,0.7846153846153847,1.0,0.8923076923076922,0.5384615384615385,-1.0,1
-0.15270935960591137,1.0,0.9507389162561577,1.0,0.7846153846153847,0.7846153846153847,1.0,0.8923076923076922,0.5384615384615385,-1.0,0.4307692307692308,0.32307692307692304,0.2168674698795181,0.0843373493975903,-0.09638554216867468,0.024096385542168752,1.0,0.5180722891566265,-1.0,-0.8313253012048193,1
0.4307692307692308,0.32307692307692304,0.2168674698795181,0.0843373493975903,-0.09638554216867468,0.024096385542168752,1.0,0.5180722891566265,-1.0,-0.8313253012048193,-0.23316062176165808,-0.24352331606217614,-0.18134715025906734,0.160621761658031,0.20207253886010368,0.8963730569948187,1.0,-1.0,0.5096153846153846,0.03846153846153855,1
-0.23316062176165808,-0.24352331606217614,-0.18134715025906734,0.160621761658031,0.20207253886010368,0.8963730569948187,1.0,-1.0,0.5096153846153846,0.03846153846153855,0.08653846153846145,0.09615384615384626,-1.0,-0.1826923076923077,0.9615384615384615,1.0,0.265625,-0.421875,-0.890625,0.0,1
0.08653846153846145,0.09615384615384626,-1.0,-0.1826923076923077,0.9615384615384615,1.0,0.265625,-0.421875,-0.890625,0.0,0.546875,1.0,-1.0,-0.078125,-0.7922077922077921,0.5974025974025974,0.8051948051948052,1.0,0.5064935064935066,0.5974025974025974,1
0.546875,1.0,-1.0,-0.078125,-0.7922077922077921,0.5974025974025974,0.8051948051948052,1.0,0.5064935064935066,0.5974025974025974,-0.11688311688311692,-1.0,1.0,0.06349206349206349,-0.04761904761904767,-1.0,-0.6190476190476191,0.031746031746031855,-0.015873015873015928,0.7142857142857142,1
-0.11688311688311692,-1.0,1.0,0.06349206349206349,-0.04761904761904767,-1.0,-0.6190476190476191,0.031746031746031855,-0.015873015873015928,0.7142857142857142,-1.0,-0.49650349650349646,-0.46853146853146854,-0.6503496503496504,0.5664335664335665,1.0,-0.3426573426573427,0.04895104895104896,-0.2934131736526946,0.13772455089820368,1
-1.0,-0.49650349650349646,-0.46853146853146854,-0.6503496503496504,0.5664335664335665,1.0,-0.3426573426573427,0.04895104895104896,-0.2934131736526946,0.13772455089820368,0.23353293413173648,0.6766467065868262,0.017964071856287456,-1.0,-0.6167664670658682,1.0,0.6428571428571428,0.1428571428571428,0.33333333333333326,-1.0,1
0.23353293413173648,0.6766467065868262,0.017964071856287456,-1.0,-0.6167664670658682,1.0,0.6428571428571428,0.1428571428571428,0.33333333333333326,-1.0,0.8809523809523809,-0.47619047619047616,0.9761904761904763,1.0,-0.13793103448275867,0.24137931034482762,-0.2068965517241379,-0.48275862068965514,0.0,1.0,1
0.8809523809523809,-0.47619047619047616,0.9761904761904763,1.0,-0.13793103448275867,0.24137931034482762,-0.2068965517241379,-0.48275862068965514,0.0,1.0,0.10344827586206895,-1.0,1.0,0.6164383561643836,0.42465753424657526,-1.0,0.17808219178082196,1.0,0.6849315068493151,-0.4246575342465754,1
0.10344827586206895,-1.0,1.0,0.6164383561643836,0.42465753424657526,-1.0,0.17808219178082196,1.0,0.6849315068493151,-0.4246575342465754,-0.15533980582524276,-0.058252427184465994,-0.07766990291262132,0.7184466019417475,1.0,-0.15533980582524276,-1.0,0.44660194174757284,0.15384615384615374,-0.27692307692307694,1
-0.15533980582524276,-0.058252427184465994,-0.07766990291262132,0.7184466019417475,1.0,-0.15533980582524276,-1.0,0.44660194174757284,0.15384615384615374,-0.27692307692307694,-0.06153846153846154,0.6307692307692307,0.32307692307692304,-0.5692307692307692,1.0,-1.0,-1.0,-0.5606060606060606,-0.5909090909090908,-0.8181818181818181,1
-0.06153846153846154,0.6307692307692307,0.32307692307692304,-0.5692307692307692,1.0,-1.0,-1.0,-0.5606060606060606,-0.5909090909090908,-0.8181818181818181,-0.3787878787878788,1.0,-0.5151515151515151,-0.36363636363636365,-0.6933333333333334,-0.9333333333333333,-1.0,-0.8666666666666667,-0.76,1.0,1
-0.3787878787878788,1.0,-0.5151515151515151,-0.36363636363636365,-0.6933333333333334,-0.9333333333333333,-1.0,-0.8666666666666667,-0.76,1.0,-0.28,-0.41333333333333333,0.11409395973154357,-0.3691275167785235,-0.7315436241610738,-1.0,-0.9194630872483222,0.5033557046979866,1.0,-0.7718120805369127,1
-0.28,-0.41333333333333333,0.11409395973154357,-0.3691275167785235,-0.7315436241610738,-1.0,-0.9194630872483222,0.5033557046979866,1.0,-0.7718120805369127,0.22758620689655173,0.1586206896551725,1.0,-0.10344827586206895,-0.8206896551724138,-1.0,0.020689655172413834,0.9862068965517241,0.7464788732394365,0.6338028169014085,1
0.22758620689655173,0.1586206896551725,1.0,-0.10344827586206895,-0.8206896551724138,-1.0,0.020689655172413834,0.9862068965517241,0.7464788732394365,0.6338028169014085,0.6901408450704225,0.6338028169014085,1.0,0.5211267605633803,-1.0,0.943661971830986,0.21999999999999997,0.06000000000000005,-0.14,0.6399999999999999,1
0.6901408450704225,0.6338028169014085,1.0,0.5211267605633803,-1.0,0.943661971830986,0.21999999999999997,0.06000000000000005,-0.14,0.6399999999999999,0.45999999999999996,-1.0,1.0,-0.040000000000000036,-0.6875,-0.765625,-1.0,-0.046875,0.15625,1.0,1
0.45999999999999996,-1.0,1.0,-0.040000000000000036,-0.6875,-0.765625,-1.0,-0.046875,0.15625,1.0,0.046875,-0.859375,1.0,-0.15315315315315314,-0.2072072072072072,0.1711711711711712,-1.0,0.22522522522522515,-0.7657657657657657,-0.7117117117117118,1
0.046875,-0.859375,1.0,-0.15315315315315314,-0.2072072072072072,0.1711711711711712,-1.0,0.22522522522522515,-0.7657657657657657,-0.7117117117117118,-1.0,-0.11290322580645162,0.048387096774193505,-0.16129032258064513,0.435483870967742,-0.25806451612903225,1.0,0.8387096774193548,0.8461538461538463,1.0,1
-1.0,-0.11290322580645162,0.048387096774193505,-0.16129032258064513,0.435483870967742,-0.25806451612903225,1.0,0.8387096774193548,0.8461538461538463,1.0,0.4461538461538461,0.476923076923077,0.7230769230769232,0.6923076923076923,-1.0,-0.5384615384615384,0.36363636363636354,0.4242424242424243,0.6515151515151516,0.48484848484848486,1
0.4461538461538461,0.476923076923077,0.7230769230769232,0.6923076923076923,-1.0,-0.5384615384615384,0.36363636363636354,0.4242424242424243,0.6515151515151516,0.48484848484848486,1.0,0.4242424242424243,0.6212121212121211,-1.0,-0.23636363636363633,-0.4181818181818182,-0.2727272727272727,-0.2909090909090909,-0.509090909090909,-1.0,1
1.0,0.4242424242424243,0.6212121212121211,-1.0,-0.23636363636363633,-0.4181818181818182,-0.2727272727272727,-0.2909090909090909,-0.509090909090909,-1.0,-0.4363636363636364,1.0,-0.5757575757575757,0.09090909090909083,-0.030303030303030276,-1.0,-0.6060606060606061,-0.1515151515151515,1.0,0.2727272727272727,1
-0.4363636363636364,1.0,-0.5757575757575757,0.09090909090909083,-0.030303030303030276,-1.0,-0.6060606060606061,-0.1515151515151515,1.0,0.2727272727272727,0.36585365853658547,0.024390243902439046,-0.2682926829268293,-1.0,-0.12195121951219512,0.1707317073170731,1.0,-0.5121951219512195,-1.0,-0.4257425742574258,1
0.36585365853658547,0.024390243902439046,-0.2682926829268293,-1.0,-0.12195121951219512,0.1707317073170731,1.0,-0.5121951219512195,-1.0,-0.4257425742574258,-0.5841584158415842,0.24752475247524752,-0.18811881188118806,1.0,0.4455445544554455,-0.04950495049504955,-0.4509803921568627,-0.3137254901960784,-0.1568627450980392,-1.0,1
-0.5841584158415842,0.24752475247524752,-0.18811881188118806,1.0,0.4455445544554455,-0.04950495049504955,-0.4509803921568627,-0.3137254901960784,-0.1568627450980392,-1.0,-0.6470588235294117,0.9803921568627452,1.0,-0.5098039215686274,0.6666666666666667,-0.30952380952380953,-0.7380952380952381,0.33333333333333326,0.23809523809523814,-1.0,1
-0.6470588235294117,0.9803921568627452,1.0,-0.5098039215686274,0.6666666666666667,-0.30952380952380953,-0.7380952380952381,0.33333333333333326,0.23809523809523814,-1.0,-0.47619047619047616,1.0,0.33333333333333326,0.46666666666666656,0.7333333333333334,1.0,0.19999999999999996,-1.0,-0.051851851851851816,-0.8074074074074074,1
-0.47619047619047616,1.0,0.33333333333333326,0.46666666666666656,0.7333333333333334,1.0,0.19999999999999996,-1.0,-0.051851851851851816,-0.8074074074074074,0.6635514018691588,-0.08411214953271029,-0.15887850467289721,0.23364485981308403,-1.0,1.0,0.8130841121495327,0.9252336448598131,1.0,-0.16190476190476188,1
0.6635514018691588,-0.08411214953271029,-0.15887850467289721,0.23364485981308403,-1.0,1.0,0.8130841121495327,0.9252336448598131,1.0,-0.16190476190476188,-0.5809523809523809,-0.3904761904761904,-0.3142857142857143,-1.0,-0.10476190476190472,0.06666666666666665,-0.782608695652174,0.13043478260869557,0.4130434782608696,0.5652173913043479,1
-0.5809523809523809,-0.3904761904761904,-0.3142857142857143,-1.0,-0.10476190476190472,0.06666666666666665,-0.782608695652174,0.13043478260869557,0.4130434782608696,0.5652173913043479,1.0,-1.0,-0.5869565217391304,0.673913043478261,0.5463917525773196,0.25773195876288657,0.21649484536082464,0.010309278350515427,-0.21649484536082475,1.0,1
1.0,-1.0,-0.5869565217391304,0.673913043478261,0.5463917525773196,0.25773195876288657,0.21649484536082464,0.010309278350515427,-0.21649484536082475,1.0,-1.0,-0.979381443298969,-1.0,0.125,0.4375,0.96875,-0.21875,-0.09375,1.0,0.625,1
-1.0,-0.979381443298969,-1.0,0.125,0.4375,0.96875,-0.21875,-0.09375,1.0,0.625,0.125,-0.25,-0.32499999999999996,-1.0,-0.19999999999999996,0.675,0.2250000000000001,1.0,1.0,-0.06849315068493156,1
0.125,-0.25,-0.32499999999999996,-1.0,-0.19999999999999996,0.675,0.2250000000000001,1.0,1.0,-0.06849315068493156,0.20547945205479445,-0.7534246575342466,0.23287671232876717,-1.0,0.5068493150684932,-0.8082191780821918,-1.0,0.2622950819672132,0.049180327868852514,1.0,1
0.20547945205479445,-0.7534246575342466,0.23287671232876717,-1.0,0.5068493150684932,-0.8082191780821918,-1.0,0.2622950819672132,0.049180327868852514,1.0,-0.39344262295081966,0.9180327868852458,0.3114754098360655,0.7868852459016393,0.17460317460317465,-0.1428571428571429,-1.0,-0.07936507936507942,-0.23809523809523814,-0.2698412698412699,1
-0.39344262295081966,0.9180327868852458,0.3114754098360655,0.7868852459016393,0.17460317460317465,-0.1428571428571429,-1.0,-0.07936507936507942,-0.23809523809523814,-0.2698412698412699,1.0,-0.1428571428571429,0.7749999999999999,1.0,0.925,-0.025000000000000022,0.8,0.2250000000000001,-1.0,-0.32499999999999996,1
1.0,-0.1428571428571429,0.7749999999999999,1.0,0.925,-0.025000000000000022,0.8,0.2250000000000001,-1.0,-0.32499999999999996,0.20634920634920628,-0.8412698412698413,-0.2698412698412699,-0.23809523809523814,-0.33333333333333337,-1.0,1.0,0.9365079365079365,0.65625,-0.15625,1
0.20634920634920628,-0.8412698412698413,-0.2698412698412699,-0.23809523809523814,-0.33333333333333337,-1.0,1.0,0.9365079365079365,0.65625,-0.15625,-0.34375,0.84375,-1.0,0.65625,1.0,-0.59375,0.5217391304347827,0.5869565217391304,0.5652173913043479,0.8043478260869565,1
-0.34375,0.84375,-1.0,0.65625,1.0,-0.59375,0.5217391304347827,0.5869565217391304,0.5652173913043479,0.8043478260869565,1.0,-0.021739130434782594,-1.0,0.7826086956521738,0.8775510204081634,0.1020408163265305,0.061224489795918435,-1.0,0.08163265306122458,1.0,1
1.0,-0.021739130434782594,-1.0,0.7826086956521738,0.8775510204081634,0.1020408163265305,0.061224489795918435,-1.0,0.08163265306122458,1.0,0.9183673469387754,0.3265306122448979,-0.12941176470588234,-0.4117647058823529,-0.9058823529411765,-1.0,-0.24705882352941178,1.0,0.17647058823529416,0.3176470588235294,1
0.9183673469387754,0.3265306122448979,-0.12941176470588234,-0.4117647058823529,-0.9058823529411765,-1.0,-0.24705882352941178,1.0,0.17647058823529416,0.3176470588235294,-0.6986301369863014,-0.1095890410958904,0.17808219178082196,1.0,0.08219178082191791,-0.7534246575342466,-0.6986301369863014,-1.0,1.0,1.0,1
-0.6986301369863014,-0.1095890410958904,0.17808219178082196,1.0,0.08219178082191791,-0.7534246575342466,-0.6986301369863014,-1.0,1.0,1.0,0.10000000000000009,-1.0,0.8,0.25,0.3500000000000001,0.8500000000000001,0.7560975609756098,-0.6341463414634146,-1.0,-0.7317073170731707,1
0.10000000000000009,-1.0,0.8,0.25,0.3500000000000001,0.8500000000000001,0.7560975609756098,-0.6341463414634146,-1.0,-0.7317073170731707,0.5853658536585367,1.0,-0.24390243902439024,-0.12195121951219512,0.27586206896551735,0.5862068965517242,0.5172413793103448,1.0,-1.0,-0.24137931034482762,1
0.5853658536585367,1.0,-0.24390243902439024,-0.12195121951219512,0.27586206896551735,0.5862068965517242,0.5172413793103448,1.0,-1.0,-0.24137931034482762,-0.3793103448275862,-0.31034482758620685,0.5737704918032787,0.540983606557377,-0.24590163934426235,-0.9672131147540983,-0.9344262295081968,-1.0,1.0,0.11475409836065564,1
-0.3793103448275862,-0.31034482758620685,0.5737704918032787,0.540983606557377,-0.24590163934426235,-0.9672131147540983,-0.9344262295081968,-1.0,1.0,0.11475409836065564,-0.5913978494623655,-0.18279569892473113,0.3978494623655915,-0.9139784946236559,0.935483870967742,-0.7204301075268817,-1.0,1.0,-0.6347826086956522,-0.6521739130434783,1
-0.5913978494623655,-0.18279569892473113,0.3978494623655915,-0.9139784946236559,0.935483870967742,-0.7204301075268817,-1.0,1.0,-0.6347826086956522,-0.6521739130434783,-1.0,-0.7565217391304347,-0.5478260869565217,1.0,-0.6347826086956522,-0.8434782608695652,0.7,0.23750000000000004,0.3374999999999999,0.5249999999999999,1
-1.0,-0.7565217391304347,-0.5478260869565217,1.0,-0.6347826086956522,-0.8434782608695652,0.7,0.23750000000000004,0.3374999999999999,0.5249999999999999,0.1875,-1.0,1.0,0.07499999999999996,-0.9466666666666667,-0.3866666666666667,-0.41333333333333333,0.43999999999999995,-0.6533333333333333,1.0,1
0.1875,-1.0,1.0,0.07499999999999996,-0.9466666666666667,-0.3866666666666667,-0.41333333333333333,0.43999999999999995,-0.6533333333333333,1.0,0.4933333333333334,-1.0,-0.5833333333333333,-0.7083333333333333,-1.0,-0.04166666666666663,-0.875,-0.7083333333333333,1.0,-0.29166666666666663,1
0.4933333333333334,-1.0,-0.5833333333333333,-0.7083333333333333,-1.0,-0.04166666666666663,-0.875,-0.7083333333333333,1.0,-0.29166666666666663,0.13114754098360648,0.14754098360655732,1.0,-0.8360655737704918,-1.0,0.16393442622950816,0.7049180327868851,-0.08196721311475408,0.4482758620689655,0.4482758620689655,1
0.13114754098360648,0.14754098360655732,1.0,-0.8360655737704918,-1.0,0.16393442622950816,0.7049180327868851,-0.08196721311475408,0.4482758620689655,0.4482758620689655,0.31034482758620685,-0.48275862068965514,1.0,-0.06896551724137934,-0.8275862068965517,-1.0,1.0,-0.07438016528925617,-0.487603305785124,-1.0,1
0.31034482758620685,-0.48275862068965514,1.0,-0.06896551724137934,-0.8275862068965517,-1.0,1.0,-0.07438016528925617,-0.487603305785124,-1.0,-0.17355371900826444,0.3553719008264462,0.38842975206611574,0.07438016528925617,0.125,-0.34375,-0.71875,0.59375,-0.125,-0.5625,1
-0.17355371900826444,0.3553719008264462,0.38842975206611574,0.07438016528925617,0.125,-0.34375,-0.71875,0.59375,-0.125,-0.5625,-1.0,1.0,0.09859154929577474,-0.014084507042253502,0.5211267605633803,-1.0,-0.7464788732394366,-0.49295774647887325,0.323943661971831,1.0,1
-1.0,1.0,0.09859154929577474,-0.014084507042253502,0.5211267605633803,-1.0,-0.7464788732394366,-0.49295774647887325,0.323943661971831,1.0,-0.2977099236641222,-0.03816793893129766,-0.007633587786259555,1.0,0.28244274809160297,0.11450381679389321,-0.6793893129770993,-1.0,-0.06474820143884896,0.050359712230215736,1
-0.2977099236641222,-0.03816793893129766,-0.007633587786259555,1.0,0.28244274809160297,0.11450381679389321,-0.6793893129770993,-1.0,-0.06474820143884896,0.050359712230215736,0.5683453237410072,-0.28057553956834536,-1.0,0.2517985611510791,0.9568345323741008,1.0,1.0,0.14529914529914523,0.3162393162393162,0.02564102564102555,1
0.5683453237410072,-0.28057553956834536,-1.0,0.2517985611510791,0.9568345323741008,1.0,1.0,0.14529914529914523,0.3162393162393162,0.02564102564102555,0.7264957264957266,-1.0,-0.3162393162393162,0.5897435897435896,-1.0,0.09090909090909083,0.13286713286713292,1.0,0.3006993006993006,-0.7342657342657343,1
0.7264957264957266,-1.0,-0.3162393162393162,0.5897435897435896,-1.0,0.09090909090909083,0.13286713286713292,1.0,0.3006993006993006,-0.7342657342657343,-0.2727272727272727,-0.7062937062937062,0.29824561403508776,0.22807017543859653,-0.6491228070175439,-1.0,0.08771929824561409,1.0,-0.8596491228070176,0.7543859649122806,1
-0.2727272727272727,-0.7062937062937062,0.29824561403508776,0.22807017543859653,-0.6491228070175439,-1.0,0.08771929824561409,1.0,-0.8596491228070176,0.7543859649122806,1.0,0.030303030303030276,0.09090909090909083,-0.8787878787878788,-0.21212121212121215,0.4242424242424243,0.33333333333333326,-1.0,0.5703703703703704,-0.14074074074074072,1
1.0,0.030303030303030276,0.09090909090909083,-0.8787878787878788,-0.21212121212121215,0.4242424242424243,0.33333333333333326,-1.0,0.5703703703703704,-0.14074074074074072,0.2592592592592593,1.0,0.09629629629629632,-0.14074074074074072,-1.0,0.22962962962962963,0.39743589743589736,0.4358974358974359,0.33333333333333326,-1.0,1
0.2592592592592593,1.0,0.09629629629629632,-0.14074074074074072,-1.0,0.22962962962962963,0.39743589743589736,0.4358974358974359,0.33333333333333326,-1.0,0.8461538461538463,0.6923076923076923,1.0,0.4358974358974359,0.1200000000000001,0.1200000000000001,0.6799999999999999,1.0,-0.36,-1.0,1
0.8461538461538463,0.6923076923076923,1.0,0.4358974358974359,0.1200000000000001,0.1200000000000001,0.6799999999999999,1.0,-0.36,-1.0,0.040000000000000036,-0.040000000000000036,0.08196721311475419,-0.08196721311475408,-1.0,1.0,0.7704918032786885,-0.016393442622950838,-0.3770491803278688,0.016393442622950838,1
0.040000000000000036,-0.040000000000000036,0.08196721311475419,-0.08196721311475408,-1.0,1.0,0.7704918032786885,-0.016393442622950838,-0.3770491803278688,0.016393442622950838,0.75,0.19999999999999996,1.0,0.050000000000000044,-0.09999999999999998,-1.0,-0.95,0.25,1.0,-0.16417910447761197,1
0.75,0.19999999999999996,1.0,0.050000000000000044,-0.09999999999999998,-1.0,-0.95,0.25,1.0,-0.16417910447761197,-1.0,0.28358208955223874,0.4328358208955223,-0.6716417910447761,-0.7313432835820896,-0.8208955223880597,-0.453125,0.03125,0.390625,-1.0,1
-1.0,0.28358208955223874,0.4328358208955223,-0.6716417910447761,-0.7313432835820896,-0.8208955223880597,-0.453125,0.03125,0.390625,-1.0,-0.171875,-0.109375,0.015625,1.0,0.49056603773584895,0.18867924528301883,-0.37735849056603776,1.0,-1.0,-0.4716981132075472,1
-0.171875,-0.109375,0.015625,1.0,0.49056603773584895,0.18867924528301883,-0.37735849056603776,1.0,-1.0,-0.4716981132075472,0.07547169811320753,-0.09433962264150941,0.29292929292929304,-0.0505050505050505,-0.19191919191919193,-0.3737373737373737,1.0,0.2727272727272727,-0.595959595959596,-1.0,1
0.07547169811320753,-0.09433962264150941,0.29292929292929304,-0.0505050505050505,-0.19191919191919193,-0.3737373737373737,1.0,0.2727272727272727,-0.595959595959596,-1.0,0.41007194244604306,0.07913669064748197,-0.03597122302158273,0.5539568345323742,0.9712230215827338,-1.0,0.5107913669064748,1.0,1.0,1.0,1
0.41007194244604306,0.07913669064748197,-0.03597122302158273,0.5539568345323742,0.9712230215827338,-1.0,0.5107913669064748,1.0,1.0,1.0,0.744360902255639,0.6240601503759398,0.3834586466165413,-0.4736842105263158,-1.0,0.8796992481203008,1.0,-0.2432432432432432,-0.21621621621621623,-0.8648648648648649,1
0.744360902255639,0.6240601503759398,0.3834586466165413,-0.4736842105263158,-1.0,0.8796992481203008,1.0,-0.2432432432432432,-0.21621621621621623,-0.8648648648648649,0.4054054054054055,-1.0,-0.16216216216216217,-0.32432432432432434,-0.23529411764705888,-0.6176470588235294,-1.0,-0.05882352941176472,-0.1470588235294118,1.0,1
0.4054054054054055,-1.0,-0.16216216216216217,-0.32432432432432434,-0.23529411764705888,-0.6176470588235294,-1.0,-0.05882352941176472,-0.1470588235294118,1.0,0.02941176470588225,-0.32352941176470584,-1.0,-0.21739130434782605,1.0,-0.3913043478260869,0.04347826086956519,0.34782608695652173,-0.04347826086956519,0.13043478260869557,1
0.02941176470588225,-0.32352941176470584,-1.0,-0.21739130434782605,1.0,-0.3913043478260869,0.04347826086956519,0.34782608695652173,-0.04347826086956519,0.13043478260869557,0.38053097345132736,0.5221238938053097,0.415929203539823,1.0,0.09734513274336276,0.663716814159292,-1.0,-0.5221238938053097,0.2753623188405796,-0.5652173913043479,1
0.38053097345132736,0.5221238938053097,0.415929203539823,1.0,0.09734513274336276,0.663716814159292,-1.0,-0.5221238938053097,0.2753623188405796,-0.5652173913043479,-0.7681159420289855,-0.6811594202898551,0.18840579710144922,-1.0,0.7681159420289856,1.0,-0.25,-0.9166666666666666,-0.75,-1.0,1
-0.7681159420289855,-0.6811594202898551,0.18840579710144922,-1.0,0.7681159420289856,1.0,-0.25,-0.9166666666666666,-0.75,-1.0,-1.0,1.0,0.75,-0.8333333333333334,-0.8214285714285714,-0.4285714285714286,-0.4642857142857143,-0.3214285714285714,1.0,-0.6785714285714286,1
-1.0,1.0,0.75,-0.8333333333333334,-0.8214285714285714,-0.4285714285714286,-0.4642857142857143,-0.3214285714285714,1.0,-0.6785714285714286,-1.0,-0.9642857142857143,1.0,0.05263157894736836,-0.010526315789473717,-1.0,0.24210526315789482,0.34736842105263155,0.28421052631578947,0.6631578947368422,1
-1.0,-0.9642857142857143,1.0,0.05263157894736836,-0.010526315789473717,-1.0,0.24210526315789482,0.34736842105263155,0.28421052631578947,0.6631578947368422,-0.48051948051948057,-0.4025974025974026,-0.4545454545454546,1.0,-0.35064935064935066,-0.5324675324675325,-0.6363636363636364,-1.0,0.6764705882352942,0.25,1
-0.48051948051948057,-0.4025974025974026,-0.4545454545454546,1.0,-0.35064935064935066,-0.5324675324675325,-0.6363636363636364,-1.0,0.6764705882352942,0.25,-0.014705882352941124,-0.19117647058823528,-1.0,-0.014705882352941124,0.8235294117647058,1.0,-0.3055555555555556,0.38888888888888884,0.9722222222222223,1.0,1
-0.014705882352941124,-0.19117647058823528,-1.0,-0.014705882352941124,0.8235294117647058,1.0,-0.3055555555555556,0.38888888888888884,0.9722222222222223,1.0,0.5833333333333333,-1.0,-0.5833333333333333,-0.4722222222222222,1.0,0.1499999999999999,-1.0,-0.35,0.25,0.17500000000000004,1
0.5833333333333333,-1.0,-0.5833333333333333,-0.4722222222222222,1.0,0.1499999999999999,-1.0,-0.35,0.25,0.17500000000000004,-0.22499999999999998,0.1499999999999999,-0.868421052631579,-0.9210526315789473,-0.2894736842105263,1.0,-0.9473684210526316,-0.368421052631579,-0.7105263157894737,-1.0,1
-0.22499999999999998,0.1499999999999999,-0.868421052631579,-0.9210526315789473,-0.2894736842105263,1.0,-0.9473684210526316,-0.368421052631579,-0.7105263157894737,-1.0,0.5443037974683544,0.31645569620253156,-0.11392405063291144,-1.0,0.139240506329114,1.0,0.8734177215189873,0.139240506329114,-0.2727272727272727,-0.40909090909090906,1
0.5443037974683544,0.31645569620253156,-0.11392405063291144,-1.0,0.139240506329114,1.0,0.8734177215189873,0.139240506329114,-0.2727272727272727,-0.40909090909090906,0.3181818181818181,0.13636363636363646,1.0,-1.0,-0.6818181818181819,-0.18181818181818177,1.0,0.4606741573033708,0.4382022471910112,-0.2808988764044944,1
0.3181818181818181,0.13636363636363646,1.0,-1.0,-0.6818181818181819,-0.18181818181818177,1.0,0.4606741573033708,0.4382022471910112,-0.2808988764044944,-0.3707865168539326,0.146067415730337,0.1910112359550562,-1.0,-1.0,-0.5172413793103448,-0.7586206896551724,-0.6551724137931034,0.17241379310344818,0.4310344827586208,1
-0.3707865168539326,0.146067415730337,0.1910112359550562,-1.0,-1.0,-0.5172413793103448,-0.7586206896551724,-0.6551724137931034,0.17241379310344818,0.4310344827586208,0.01724137931034475,1.0,-0.2564102564102564,-0.05128205128205132,-0.15384615384615385,1.0,0.7435897435897436,0.46153846153846145,-1.0,-0.5897435897435898,1
0.01724137931034475,1.0,-0.2564102564102564,-0.05128205128205132,-0.15384615384615385,1.0,0.7435897435897436,0.46153846153846145,-1.0,-0.5897435897435898,0.7431192660550459,0.724770642201835,0.6697247706422018,0.5596330275229358,0.4495412844036697,-1.0,1.0,-0.1009174311926605,-0.2100840336134454,-0.6974789915966386,1
